0.000000	539.000000	135324.000000	0.000000	1678603082.381484	0.000000
0.000000	538.000000	135323.000000	0.000000	1678603082.396383	0.000000
0.000000	538.000000	135293.000000	0.000000	1678603082.411282	0.000000
0.000000	538.000000	135263.000000	0.000000	1678603082.426181	0.000000
0.000000	539.000000	135282.000000	0.000000	1678603082.441080	0.000000
0.000000	539.000000	135251.000000	0.000000	1678603082.455979	0.000000
0.000000	537.000000	135238.000000	0.000000	1678603082.472977	0.000000
0.000000	538.000000	135213.000000	0.000000	1678603082.489975	0.000000
0.000000	537.000000	135194.000000	0.000000	1678603082.506973	0.000000
0.000000	538.000000	135243.000000	0.000000	1678603082.523971	0.000000
0.000000	540.000000	135234.000000	0.000000	1678603082.540969	0.000000
0.000000	538.000000	135178.000000	0.000000	1678603082.557967	0.000000
0.000000	540.000000	135141.000000	0.000000	1678603082.573281	0.000000
0.000000	538.000000	135146.000000	0.000000	1678603082.588595	0.000000
0.000000	538.000000	135198.000000	0.000000	1678603082.603910	0.000000
0.000000	538.000000	135130.000000	0.000000	1678603082.619224	0.000000
0.000000	539.000000	135136.000000	0.000000	1678603082.634538	0.000000
0.000000	538.000000	135157.000000	0.000000	1678603082.649853	0.000000
0.000000	538.000000	135172.000000	0.000000	1678603082.669614	0.000000
0.000000	539.000000	135104.000000	0.000000	1678603082.689375	0.000000
0.000000	538.000000	135152.000000	0.000000	1678603082.709137	0.000000
0.000000	537.000000	135149.000000	0.000000	1678603082.728898	0.000000
0.000000	538.000000	135130.000000	0.000000	1678603082.748660	0.000000
0.000000	537.000000	135138.000000	0.000000	1678603082.768421	0.000000
0.000000	539.000000	135157.000000	0.000000	1678603082.778981	0.000000
0.000000	538.000000	135112.000000	0.000000	1678603082.789541	0.000000
0.000000	539.000000	135077.000000	0.000000	1678603082.800102	0.000000
0.000000	537.000000	135146.000000	0.000000	1678603082.810662	0.000000
0.000000	538.000000	135101.000000	0.000000	1678603082.821222	0.000000
0.000000	538.000000	135101.000000	0.000000	1678603082.831783	0.000000
0.000000	537.000000	135162.000000	0.000000	1678603082.846929	0.000000
0.000000	538.000000	135094.000000	0.000000	1678603082.862075	0.000000
0.000000	537.000000	135098.000000	0.000000	1678603082.877221	0.000000
0.000000	539.000000	135104.000000	0.000000	1678603082.892368	0.000000
0.000000	539.000000	135148.000000	0.000000	1678603082.907514	0.000000
0.000000	539.000000	135120.000000	0.000000	1678603082.922660	0.000000
0.000000	540.000000	135139.000000	0.000000	1678603082.940079	0.000000
0.000000	538.000000	135117.000000	0.000000	1678603082.957498	0.000000
0.000000	538.000000	135115.000000	0.000000	1678603082.974917	0.000000
0.000000	539.000000	135179.000000	0.000000	1678603082.992336	0.000000
0.000000	538.000000	135142.000000	0.000000	1678603083.009755	0.000000
0.000000	539.000000	135084.000000	0.000000	1678603083.027174	0.000000
0.000000	541.000000	130778.000000	0.000000	1678603306.309316	0.000000
0.000000	541.000000	130816.000000	0.000000	1678603306.326639	0.000000
0.000000	540.000000	130822.000000	0.000000	1678603306.343962	0.000000
0.000000	541.000000	130833.000000	0.000000	1678603306.361285	0.000000
0.000000	540.000000	130856.000000	0.000000	1678603306.378608	0.000000
0.000000	541.000000	130840.000000	0.000000	1678603306.395931	0.000000
0.000000	540.000000	130851.000000	0.000000	1678603306.411125	0.000000
0.000000	539.000000	130876.000000	0.000000	1678603306.426319	0.000000
0.000000	541.000000	130827.000000	0.000000	1678603306.441513	0.000000
0.000000	540.000000	130861.000000	0.000000	1678603306.456707	0.000000
0.000000	541.000000	130868.000000	0.000000	1678603306.471900	0.000000
0.000000	539.000000	130825.000000	0.000000	1678603306.487094	0.000000
0.000000	541.000000	130940.000000	0.000000	1678603306.502333	0.000000
0.000000	539.000000	130934.000000	0.000000	1678603306.517572	0.000000
0.000000	541.000000	130926.000000	0.000000	1678603306.532811	0.000000
0.000000	538.000000	130942.000000	0.000000	1678603306.548050	0.000000
0.000000	539.000000	130952.000000	0.000000	1678603306.563289	0.000000
0.000000	540.000000	130937.000000	0.000000	1678603306.578528	0.000000
0.000000	540.000000	130975.000000	0.000000	1678603306.593376	0.000000
0.000000	540.000000	130923.000000	0.000000	1678603306.608225	0.000000
0.000000	542.000000	131003.000000	0.000000	1678603306.623074	0.000000
0.000000	540.000000	131009.000000	0.000000	1678603306.637923	0.000000
0.000000	540.000000	130984.000000	0.000000	1678603306.652771	0.000000
0.000000	540.000000	131028.000000	0.000000	1678603306.667620	0.000000
0.000000	542.000000	131044.000000	0.000000	1678603306.684690	0.000000
0.000000	541.000000	131087.000000	0.000000	1678603306.701760	0.000000
0.000000	540.000000	131091.000000	0.000000	1678603306.718831	0.000000
0.000000	540.000000	131052.000000	0.000000	1678603306.735901	0.000000
0.000000	541.000000	131067.000000	0.000000	1678603306.752971	0.000000
0.000000	540.000000	131059.000000	0.000000	1678603306.770041	0.000000
0.000000	541.000000	131085.000000	0.000000	1678603306.785415	0.000000
0.000000	540.000000	131140.000000	0.000000	1678603306.800789	0.000000
0.000000	540.000000	131159.000000	0.000000	1678603306.816163	0.000000
0.000000	540.000000	131157.000000	0.000000	1678603306.831537	0.000000
0.000000	540.000000	131130.000000	0.000000	1678603306.846911	0.000000
0.000000	540.000000	131131.000000	0.000000	1678603306.862286	0.000000
0.000000	539.000000	131090.000000	0.000000	1678603306.877465	0.000000
0.000000	537.000000	131086.000000	0.000000	1678603306.892645	0.000000
0.000000	540.000000	131102.000000	0.000000	1678603306.907824	0.000000
0.000000	537.000000	131115.000000	0.000000	1678603306.923003	0.000000
0.000000	539.000000	131047.000000	0.000000	1678603306.938183	0.000000
0.000000	539.000000	131106.000000	0.000000	1678603306.953362	0.000000
0.000000	540.000000	131079.000000	0.000000	1678603306.970190	0.000000
0.000000	540.000000	131098.000000	0.000000	1678603306.987017	0.000000
0.000000	540.000000	131105.000000	0.000000	1678603307.003844	0.000000
0.000000	540.000000	131030.000000	0.000000	1678603307.020671	0.000000
0.000000	540.000000	131035.000000	0.000000	1678603307.037498	0.000000
0.000000	540.000000	131067.000000	0.000000	1678603307.054325	0.000000
0.000000	540.000000	131060.000000	0.000000	1678603307.069513	0.000000
0.000000	539.000000	131066.000000	0.000000	1678603307.084700	0.000000
0.000000	538.000000	131107.000000	0.000000	1678603307.099888	0.000000
0.000000	540.000000	131091.000000	0.000000	1678603307.115076	0.000000
0.000000	539.000000	131111.000000	0.000000	1678603307.130263	0.000000
0.000000	538.000000	131081.000000	0.000000	1678603307.145451	0.000000
0.000000	537.000000	131110.000000	0.000000	1678603307.160816	0.000000
0.000000	538.000000	131069.000000	0.000000	1678603307.176180	0.000000
0.000000	539.000000	131092.000000	0.000000	1678603307.191545	0.000000
0.000000	538.000000	131112.000000	0.000000	1678603307.206909	0.000000
0.000000	540.000000	131081.000000	0.000000	1678603307.222274	0.000000
0.000000	540.000000	131066.000000	0.000000	1678603307.237639	0.000000
0.000000	540.000000	131124.000000	0.000000	1678603307.254830	0.000000
0.000000	539.000000	131088.000000	0.000000	1678603307.272022	0.000000
0.000000	541.000000	131115.000000	0.000000	1678603307.289213	0.000000
0.000000	538.000000	131113.000000	0.000000	1678603307.306405	0.000000
0.000000	540.000000	131129.000000	0.000000	1678603307.323596	0.000000
0.000000	539.000000	131134.000000	0.000000	1678603307.340788	0.000000
0.000000	539.000000	131183.000000	0.000000	1678603307.356442	0.000000
0.000000	539.000000	131182.000000	0.000000	1678603307.372097	0.000000
0.000000	540.000000	131169.000000	0.000000	1678603307.387751	0.000000
0.000000	541.000000	131206.000000	0.000000	1678603307.403406	0.000000
0.000000	541.000000	131168.000000	0.000000	1678603307.419060	0.000000
0.000000	541.000000	131206.000000	0.000000	1678603307.434715	0.000000
0.000000	540.000000	131226.000000	0.000000	1678603307.449152	0.000000
0.000000	539.000000	131215.000000	0.000000	1678603307.463589	0.000000
0.000000	540.000000	131188.000000	0.000000	1678603307.478026	0.000000
0.000000	539.000000	131213.000000	0.000000	1678603307.492463	0.000000
0.000000	539.000000	131195.000000	0.000000	1678603307.506900	0.000000
0.000000	541.000000	131180.000000	0.000000	1678603307.521338	0.000000
0.000000	539.000000	131236.000000	0.000000	1678603307.536744	0.000000
0.000000	540.000000	131222.000000	0.000000	1678603307.552151	0.000000
0.000000	540.000000	131226.000000	0.000000	1678603307.567558	0.000000
0.000000	540.000000	131194.000000	0.000000	1678603307.582965	0.000000
0.000000	540.000000	131226.000000	0.000000	1678603307.598371	0.000000
0.000000	541.000000	131201.000000	0.000000	1678603307.613778	0.000000
0.000000	540.000000	131198.000000	0.000000	1678603307.628506	0.000000
0.000000	540.000000	131242.000000	0.000000	1678603307.643233	0.000000
0.000000	541.000000	131222.000000	0.000000	1678603307.657961	0.000000
0.000000	541.000000	131177.000000	0.000000	1678603307.672688	0.000000
0.000000	543.000000	131158.000000	0.000000	1678603307.687416	0.000000
0.000000	544.000000	131154.000000	0.000000	1678603307.702144	0.000000
0.000000	543.000000	131157.000000	0.000000	1678603307.719621	0.000000
0.000000	540.000000	131153.000000	0.000000	1678603307.737099	0.000000
0.000000	541.000000	131189.000000	0.000000	1678603307.754576	0.000000
0.000000	541.000000	131142.000000	0.000000	1678603307.772054	0.000000
0.000000	541.000000	131150.000000	0.000000	1678603307.789532	0.000000
0.000000	541.000000	131125.000000	0.000000	1678603307.807009	0.000000
0.000000	541.000000	131154.000000	0.000000	1678603307.821776	0.000000
0.000000	541.000000	131146.000000	0.000000	1678603307.836543	0.000000
0.000000	542.000000	131168.000000	0.000000	1678603307.851309	0.000000
0.000000	541.000000	131136.000000	0.000000	1678603307.866076	0.000000
0.000000	541.000000	131150.000000	0.000000	1678603307.880843	0.000000
0.000000	541.000000	131130.000000	0.000000	1678603307.895610	0.000000
0.000000	541.000000	131184.000000	0.000000	1678603307.911024	0.000000
0.000000	542.000000	131153.000000	0.000000	1678603307.926439	0.000000
0.000000	542.000000	131114.000000	0.000000	1678603307.941854	0.000000
0.000000	543.000000	131118.000000	0.000000	1678603307.957269	0.000000
0.000000	540.000000	131123.000000	0.000000	1678603307.972684	0.000000
0.000000	543.000000	131166.000000	0.000000	1678603307.988098	0.000000
0.000000	540.000000	131152.000000	0.000000	1678603308.003111	0.000000
0.000000	542.000000	131115.000000	0.000000	1678603308.018124	0.000000
0.000000	543.000000	131139.000000	0.000000	1678603308.033136	0.000000
0.000000	543.000000	131126.000000	0.000000	1678603308.048149	0.000000
0.000000	542.000000	131142.000000	0.000000	1678603308.063161	0.000000
0.000000	543.000000	131154.000000	0.000000	1678603308.078174	0.000000
0.000000	542.000000	131153.000000	0.000000	1678603308.095026	0.000000
0.000000	542.000000	131154.000000	0.000000	1678603308.111879	0.000000
0.000000	544.000000	131122.000000	0.000000	1678603308.128731	0.000000
0.000000	543.000000	131135.000000	0.000000	1678603308.145584	0.000000
0.000000	544.000000	131159.000000	0.000000	1678603308.162436	0.000000
0.000000	542.000000	131203.000000	0.000000	1678603308.179289	0.000000
0.000000	543.000000	131115.000000	0.000000	1678603308.194789	0.000000
0.000000	542.000000	131136.000000	0.000000	1678603308.210289	0.000000
0.000000	541.000000	131180.000000	0.000000	1678603308.225790	0.000000
0.000000	541.000000	131190.000000	0.000000	1678603308.241290	0.000000
0.000000	541.000000	131150.000000	0.000000	1678603308.256790	0.000000
0.000000	543.000000	131129.000000	0.000000	1678603308.272290	0.000000
0.000000	542.000000	131164.000000	0.000000	1678603308.287239	0.000000
0.000000	542.000000	131097.000000	0.000000	1678603308.302187	0.000000
0.000000	541.000000	131034.000000	0.000000	1678603308.317136	0.000000
0.000000	543.000000	130988.000000	0.000000	1678603308.332085	0.000000
0.000000	541.000000	131053.000000	0.000000	1678603308.347034	0.000000
0.000000	542.000000	130971.000000	0.000000	1678603308.361983	0.000000
0.000000	542.000000	131026.000000	0.000000	1678603308.377099	0.000000
0.000000	543.000000	130978.000000	0.000000	1678603308.392216	0.000000
0.000000	543.000000	130868.000000	0.000000	1678603308.407333	0.000000
0.000000	542.000000	130940.000000	0.000000	1678603308.422450	0.000000
0.000000	542.000000	130876.000000	0.000000	1678603308.437567	0.000000
0.000000	542.000000	130902.000000	0.000000	1678603308.452683	0.000000
0.000000	543.000000	130905.000000	0.000000	1678603308.467825	0.000000
0.000000	543.000000	130885.000000	0.000000	1678603308.482966	0.000000
0.000000	541.000000	130898.000000	0.000000	1678603308.498108	0.000000
0.000000	542.000000	130887.000000	0.000000	1678603308.513250	0.000000
0.000000	542.000000	130856.000000	0.000000	1678603308.528391	0.000000
0.000000	541.000000	130885.000000	0.000000	1678603308.543533	0.000000
0.000000	541.000000	130833.000000	0.000000	1678603308.560652	0.000000
0.000000	541.000000	130799.000000	0.000000	1678603308.577772	0.000000
0.000000	541.000000	130903.000000	0.000000	1678603308.594891	0.000000
0.000000	540.000000	130861.000000	0.000000	1678603308.612010	0.000000
0.000000	542.000000	130854.000000	0.000000	1678603308.629130	0.000000
0.000000	542.000000	130768.000000	0.000000	1678603308.646249	0.000000
0.000000	541.000000	130869.000000	0.000000	1678603308.661355	0.000000
0.000000	541.000000	130790.000000	0.000000	1678603308.676461	0.000000
0.000000	541.000000	130806.000000	0.000000	1678603308.691566	0.000000
0.000000	542.000000	130811.000000	0.000000	1678603308.706672	0.000000
0.000000	540.000000	130819.000000	0.000000	1678603308.721777	0.000000
0.000000	541.000000	130865.000000	0.000000	1678603308.736883	0.000000
0.000000	542.000000	130848.000000	0.000000	1678603308.751912	0.000000
0.000000	542.000000	130864.000000	0.000000	1678603308.766941	0.000000
0.000000	541.000000	130833.000000	0.000000	1678603308.781970	0.000000
0.000000	541.000000	130843.000000	0.000000	1678603308.796999	0.000000
0.000000	541.000000	130832.000000	0.000000	1678603308.812027	0.000000
0.000000	541.000000	130835.000000	0.000000	1678603308.827056	0.000000
0.000000	541.000000	130874.000000	0.000000	1678603308.842122	0.000000
0.000000	541.000000	130876.000000	0.000000	1678603308.857188	0.000000
0.000000	541.000000	130880.000000	0.000000	1678603308.872254	0.000000
0.000000	541.000000	130868.000000	0.000000	1678603308.887320	0.000000
0.000000	541.000000	130886.000000	0.000000	1678603308.902386	0.000000
0.000000	541.000000	130872.000000	0.000000	1678603308.917452	0.000000
0.000000	540.000000	130787.000000	0.000000	1678603308.934861	0.000000
0.000000	540.000000	130762.000000	0.000000	1678603308.952270	0.000000
0.000000	541.000000	130808.000000	0.000000	1678603308.969678	0.000000
0.000000	541.000000	130743.000000	0.000000	1678603308.987087	0.000000
0.000000	540.000000	130748.000000	0.000000	1678603309.004496	0.000000
0.000000	539.000000	130704.000000	0.000000	1678603309.021905	0.000000
0.000000	540.000000	130715.000000	0.000000	1678603309.037171	0.000000
0.000000	539.000000	130639.000000	0.000000	1678603309.052438	0.000000
0.000000	541.000000	130594.000000	0.000000	1678603309.067704	0.000000
0.000000	540.000000	130645.000000	0.000000	1678603309.082970	0.000000
0.000000	542.000000	130591.000000	0.000000	1678603309.098237	0.000000
0.000000	541.000000	130584.000000	0.000000	1678603309.113503	0.000000
0.000000	541.000000	130576.000000	0.000000	1678603309.128441	0.000000
0.000000	540.000000	130522.000000	0.000000	1678603309.143379	0.000000
0.000000	540.000000	130554.000000	0.000000	1678603309.158316	0.000000
0.000000	539.000000	130543.000000	0.000000	1678603309.173254	0.000000
0.000000	541.000000	130559.000000	0.000000	1678603309.188192	0.000000
0.000000	540.000000	130449.000000	0.000000	1678603309.203130	0.000000
0.000000	540.000000	130512.000000	0.000000	1678603309.220501	0.000000
0.000000	539.000000	130528.000000	0.000000	1678603309.237872	0.000000
0.000000	540.000000	130493.000000	0.000000	1678603309.255244	0.000000
0.000000	540.000000	130459.000000	0.000000	1678603309.272615	0.000000
0.000000	540.000000	130475.000000	0.000000	1678603309.289986	0.000000
0.000000	539.000000	130441.000000	0.000000	1678603309.307358	0.000000
0.000000	541.000000	130489.000000	0.000000	1678603309.322085	0.000000
0.000000	539.000000	130453.000000	0.000000	1678603309.336813	0.000000
0.000000	539.000000	130471.000000	0.000000	1678603309.351541	0.000000
0.000000	540.000000	130490.000000	0.000000	1678603309.366269	0.000000
0.000000	540.000000	130460.000000	0.000000	1678603309.380996	0.000000
0.000000	540.000000	130505.000000	0.000000	1678603309.395724	0.000000
0.000000	541.000000	130476.000000	0.000000	1678603309.411129	0.000000
0.000000	540.000000	130498.000000	0.000000	1678603309.426534	0.000000
0.000000	540.000000	130518.000000	0.000000	1678603309.441939	0.000000
0.000000	541.000000	130457.000000	0.000000	1678603309.457344	0.000000
0.000000	541.000000	130449.000000	0.000000	1678603309.472749	0.000000
0.000000	540.000000	130466.000000	0.000000	1678603309.488154	0.000000
0.000000	541.000000	130444.000000	0.000000	1678603309.505635	0.000000
0.000000	541.000000	130483.000000	0.000000	1678603309.523116	0.000000
0.000000	541.000000	130496.000000	0.000000	1678603309.540597	0.000000
0.000000	542.000000	130485.000000	0.000000	1678603309.558078	0.000000
0.000000	541.000000	130499.000000	0.000000	1678603309.575559	0.000000
0.000000	540.000000	130536.000000	0.000000	1678603309.593040	0.000000
0.000000	539.000000	130497.000000	0.000000	1678603309.605443	0.000000
0.000000	541.000000	130529.000000	0.000000	1678603309.617846	0.000000
0.000000	541.000000	130522.000000	0.000000	1678603309.630250	0.000000
0.000000	540.000000	130499.000000	0.000000	1678603309.642653	0.000000
0.000000	541.000000	130447.000000	0.000000	1678603309.655056	0.000000
0.000000	542.000000	130445.000000	0.000000	1678603309.667459	0.000000
0.000000	540.000000	130422.000000	0.000000	1678603309.684662	0.000000
0.000000	539.000000	130379.000000	0.000000	1678603309.701865	0.000000
0.000000	541.000000	130391.000000	0.000000	1678603309.719068	0.000000
0.000000	541.000000	130305.000000	0.000000	1678603309.736270	0.000000
0.000000	541.000000	130299.000000	0.000000	1678603309.753473	0.000000
0.000000	540.000000	130244.000000	0.000000	1678603309.770676	0.000000
0.000000	542.000000	130288.000000	0.000000	1678603309.785776	0.000000
0.000000	541.000000	130240.000000	0.000000	1678603309.800875	0.000000
0.000000	540.000000	130241.000000	0.000000	1678603309.815975	0.000000
0.000000	540.000000	130193.000000	0.000000	1678603309.831075	0.000000
0.000000	541.000000	130223.000000	0.000000	1678603309.846174	0.000000
0.000000	540.000000	130204.000000	0.000000	1678603309.861274	0.000000
0.000000	541.000000	130229.000000	0.000000	1678603309.878947	0.000000
0.000000	541.000000	130239.000000	0.000000	1678603309.896621	0.000000
0.000000	540.000000	130212.000000	0.000000	1678603309.914294	0.000000
0.000000	540.000000	130180.000000	0.000000	1678603309.931967	0.000000
0.000000	540.000000	130209.000000	0.000000	1678603309.949641	0.000000
0.000000	541.000000	130151.000000	0.000000	1678603309.967314	0.000000
0.000000	540.000000	130151.000000	0.000000	1678603309.980156	0.000000
0.000000	539.000000	130172.000000	0.000000	1678603309.992998	0.000000
0.000000	540.000000	130187.000000	0.000000	1678603310.005840	0.000000
0.000000	539.000000	130211.000000	0.000000	1678603310.018682	0.000000
0.000000	540.000000	130185.000000	0.000000	1678603310.031524	0.000000
0.000000	539.000000	130225.000000	0.000000	1678603310.044366	0.000000
0.000000	539.000000	130204.000000	0.000000	1678603310.061152	0.000000
0.000000	541.000000	130121.000000	0.000000	1678603310.077937	0.000000
0.000000	540.000000	130233.000000	0.000000	1678603310.094722	0.000000
0.000000	540.000000	130202.000000	0.000000	1678603310.111508	0.000000
0.000000	539.000000	130210.000000	0.000000	1678603310.128293	0.000000
0.000000	540.000000	130244.000000	0.000000	1678603310.145078	0.000000
0.000000	540.000000	130206.000000	0.000000	1678603310.162799	0.000000
0.000000	541.000000	130234.000000	0.000000	1678603310.180520	0.000000
0.000000	541.000000	130280.000000	0.000000	1678603310.198241	0.000000
0.000000	541.000000	130242.000000	0.000000	1678603310.215962	0.000000
0.000000	541.000000	130255.000000	0.000000	1678603310.233683	0.000000
0.000000	539.000000	130276.000000	0.000000	1678603310.251403	0.000000
0.000000	541.000000	130262.000000	0.000000	1678603310.264068	0.000000
0.000000	540.000000	130202.000000	0.000000	1678603310.276732	0.000000
0.000000	540.000000	130316.000000	0.000000	1678603310.289397	0.000000
0.000000	540.000000	130263.000000	0.000000	1678603310.302061	0.000000
0.000000	540.000000	130342.000000	0.000000	1678603310.314726	0.000000
0.000000	541.000000	130293.000000	0.000000	1678603310.327390	0.000000
0.000000	540.000000	130324.000000	0.000000	1678603310.342524	0.000000
0.000000	539.000000	130264.000000	0.000000	1678603310.357657	0.000000
0.000000	541.000000	130252.000000	0.000000	1678603310.372791	0.000000
0.000000	540.000000	130200.000000	0.000000	1678603310.387924	0.000000
0.000000	540.000000	130247.000000	0.000000	1678603310.403057	0.000000
0.000000	540.000000	130194.000000	0.000000	1678603310.418191	0.000000
0.000000	540.000000	130179.000000	0.000000	1678603310.435557	0.000000
0.000000	540.000000	130163.000000	0.000000	1678603310.452923	0.000000
0.000000	540.000000	130137.000000	0.000000	1678603310.470290	0.000000
0.000000	541.000000	130140.000000	0.000000	1678603310.487656	0.000000
0.000000	539.000000	130145.000000	0.000000	1678603310.505022	0.000000
0.000000	540.000000	130160.000000	0.000000	1678603310.522389	0.000000
0.000000	540.000000	130062.000000	0.000000	1678603310.537350	0.000000
0.000000	540.000000	130082.000000	0.000000	1678603310.552311	0.000000
0.000000	540.000000	130096.000000	0.000000	1678603310.567272	0.000000
0.000000	540.000000	130118.000000	0.000000	1678603310.582233	0.000000
0.000000	542.000000	130097.000000	0.000000	1678603310.597194	0.000000
0.000000	540.000000	130096.000000	0.000000	1678603310.612156	0.000000
0.000000	539.000000	130105.000000	0.000000	1678603310.627331	0.000000
0.000000	539.000000	130081.000000	0.000000	1678603310.642506	0.000000
0.000000	539.000000	130071.000000	0.000000	1678603310.657681	0.000000
0.000000	538.000000	130115.000000	0.000000	1678603310.672856	0.000000
0.000000	539.000000	130139.000000	0.000000	1678603310.688032	0.000000
0.000000	540.000000	129997.000000	0.000000	1678603310.703207	0.000000
0.000000	538.000000	130136.000000	0.000000	1678603310.718023	0.000000
0.000000	538.000000	130104.000000	0.000000	1678603310.732839	0.000000
0.000000	540.000000	130107.000000	0.000000	1678603310.747655	0.000000
0.000000	539.000000	130087.000000	0.000000	1678603310.762471	0.000000
0.000000	539.000000	130099.000000	0.000000	1678603310.777287	0.000000
0.000000	539.000000	130099.000000	0.000000	1678603310.792103	0.000000
0.000000	540.000000	130150.000000	0.000000	1678603310.809418	0.000000
0.000000	539.000000	130161.000000	0.000000	1678603310.826732	0.000000
0.000000	540.000000	130155.000000	0.000000	1678603310.844046	0.000000
0.000000	541.000000	130144.000000	0.000000	1678603310.861361	0.000000
0.000000	540.000000	130170.000000	0.000000	1678603310.878675	0.000000
0.000000	540.000000	130178.000000	0.000000	1678603310.895989	0.000000
0.000000	540.000000	130187.000000	0.000000	1678603310.913583	0.000000
0.000000	542.000000	130170.000000	0.000000	1678603310.931176	0.000000
0.000000	540.000000	130158.000000	0.000000	1678603310.948770	0.000000
0.000000	538.000000	130213.000000	0.000000	1678603310.966363	0.000000
0.000000	539.000000	130208.000000	0.000000	1678603310.983957	0.000000
0.000000	540.000000	130245.000000	0.000000	1678603311.001550	0.000000
0.000000	539.000000	130264.000000	0.000000	1678603311.014134	0.000000
0.000000	540.000000	130272.000000	0.000000	1678603311.026718	0.000000
0.000000	540.000000	130252.000000	0.000000	1678603311.039302	0.000000
0.000000	540.000000	130262.000000	0.000000	1678603311.051886	0.000000
0.000000	539.000000	130285.000000	0.000000	1678603311.064470	0.000000
0.000000	539.000000	130244.000000	0.000000	1678603311.077055	0.000000
0.000000	539.000000	130294.000000	0.000000	1678603311.092288	0.000000
0.000000	540.000000	130263.000000	0.000000	1678603311.107522	0.000000
0.000000	540.000000	130211.000000	0.000000	1678603311.122756	0.000000
0.000000	541.000000	130209.000000	0.000000	1678603311.137989	0.000000
0.000000	540.000000	130184.000000	0.000000	1678603311.153223	0.000000
0.000000	541.000000	130207.000000	0.000000	1678603311.168457	0.000000
0.000000	541.000000	130177.000000	0.000000	1678603311.185843	0.000000
0.000000	540.000000	130216.000000	0.000000	1678603311.203230	0.000000
0.000000	539.000000	130204.000000	0.000000	1678603311.220616	0.000000
0.000000	541.000000	130197.000000	0.000000	1678603311.238003	0.000000
0.000000	541.000000	130131.000000	0.000000	1678603311.255389	0.000000
0.000000	541.000000	130162.000000	0.000000	1678603311.272776	0.000000
0.000000	540.000000	130134.000000	0.000000	1678603311.287984	0.000000
0.000000	541.000000	130174.000000	0.000000	1678603311.303192	0.000000
0.000000	541.000000	130113.000000	0.000000	1678603311.318400	0.000000
0.000000	540.000000	130171.000000	0.000000	1678603311.333609	0.000000
0.000000	540.000000	130166.000000	0.000000	1678603311.348817	0.000000
0.000000	540.000000	130181.000000	0.000000	1678603311.364025	0.000000
0.000000	540.000000	130176.000000	0.000000	1678603311.378721	0.000000
0.000000	542.000000	130161.000000	0.000000	1678603311.393416	0.000000
0.000000	539.000000	130148.000000	0.000000	1678603311.408112	0.000000
0.000000	541.000000	130164.000000	0.000000	1678603311.422808	0.000000
0.000000	540.000000	130174.000000	0.000000	1678603311.437504	0.000000
0.000000	540.000000	130184.000000	0.000000	1678603311.452199	0.000000
0.000000	540.000000	130171.000000	0.000000	1678603311.467432	0.000000
0.000000	540.000000	130226.000000	0.000000	1678603311.482664	0.000000
0.000000	541.000000	130234.000000	0.000000	1678603311.497896	0.000000
0.000000	542.000000	130211.000000	0.000000	1678603311.513128	0.000000
0.000000	540.000000	130246.000000	0.000000	1678603311.528360	0.000000
0.000000	540.000000	130252.000000	0.000000	1678603311.543592	0.000000
0.000000	542.000000	130255.000000	0.000000	1678603311.560493	0.000000
0.000000	541.000000	130222.000000	0.000000	1678603311.577394	0.000000
0.000000	541.000000	130216.000000	0.000000	1678603311.594296	0.000000
0.000000	542.000000	130242.000000	0.000000	1678603311.611197	0.000000
0.000000	542.000000	130230.000000	0.000000	1678603311.628098	0.000000
0.000000	542.000000	130277.000000	0.000000	1678603311.644999	0.000000
0.000000	542.000000	130279.000000	0.000000	1678603311.660482	0.000000
0.000000	541.000000	130300.000000	0.000000	1678603311.675966	0.000000
0.000000	541.000000	130289.000000	0.000000	1678603311.691450	0.000000
0.000000	541.000000	130310.000000	0.000000	1678603311.706933	0.000000
0.000000	541.000000	130263.000000	0.000000	1678603311.722417	0.000000
0.000000	542.000000	130279.000000	0.000000	1678603311.737900	0.000000
0.000000	542.000000	130353.000000	0.000000	1678603311.752768	0.000000
0.000000	541.000000	130337.000000	0.000000	1678603311.767636	0.000000
0.000000	542.000000	130318.000000	0.000000	1678603311.782504	0.000000
0.000000	542.000000	130330.000000	0.000000	1678603311.797372	0.000000
0.000000	540.000000	130336.000000	0.000000	1678603311.812239	0.000000
0.000000	542.000000	130395.000000	0.000000	1678603311.827107	0.000000
0.000000	543.000000	130356.000000	0.000000	1678603311.842263	0.000000
0.000000	541.000000	130420.000000	0.000000	1678603311.857418	0.000000
0.000000	543.000000	130390.000000	0.000000	1678603311.872573	0.000000
0.000000	543.000000	130348.000000	0.000000	1678603311.887728	0.000000
0.000000	542.000000	130350.000000	0.000000	1678603311.902884	0.000000
0.000000	543.000000	130364.000000	0.000000	1678603311.918039	0.000000
0.000000	543.000000	130342.000000	0.000000	1678603311.935276	0.000000
0.000000	542.000000	130362.000000	0.000000	1678603311.952512	0.000000
0.000000	542.000000	130348.000000	0.000000	1678603311.969748	0.000000
0.000000	543.000000	130388.000000	0.000000	1678603311.986985	0.000000
0.000000	542.000000	130300.000000	0.000000	1678603312.004221	0.000000
0.000000	542.000000	130325.000000	0.000000	1678603312.021458	0.000000
0.000000	541.000000	130365.000000	0.000000	1678603312.036646	0.000000
0.000000	541.000000	130318.000000	0.000000	1678603312.051834	0.000000
0.000000	542.000000	130356.000000	0.000000	1678603312.067022	0.000000
0.000000	542.000000	130362.000000	0.000000	1678603312.082210	0.000000
0.000000	542.000000	130356.000000	0.000000	1678603312.097398	0.000000
0.000000	542.000000	130341.000000	0.000000	1678603312.112586	0.000000
0.000000	542.000000	130397.000000	0.000000	1678603312.127753	0.000000
0.000000	540.000000	130355.000000	0.000000	1678603312.142920	0.000000
0.000000	542.000000	130364.000000	0.000000	1678603312.158087	0.000000
0.000000	541.000000	130374.000000	0.000000	1678603312.173254	0.000000
0.000000	541.000000	130350.000000	0.000000	1678603312.188421	0.000000
0.000000	542.000000	130403.000000	0.000000	1678603312.203588	0.000000
0.000000	543.000000	130437.000000	0.000000	1678603312.218342	0.000000
0.000000	542.000000	130406.000000	0.000000	1678603312.233095	0.000000
0.000000	543.000000	130445.000000	0.000000	1678603312.247849	0.000000
0.000000	544.000000	130376.000000	0.000000	1678603312.262604	0.000000
0.000000	542.000000	130460.000000	0.000000	1678603312.277357	0.000000
0.000000	543.000000	130481.000000	0.000000	1678603312.292111	0.000000
0.000000	544.000000	130433.000000	0.000000	1678603312.309509	0.000000
0.000000	543.000000	130430.000000	0.000000	1678603312.326907	0.000000
0.000000	543.000000	130456.000000	0.000000	1678603312.344304	0.000000
0.000000	542.000000	130500.000000	0.000000	1678603312.361702	0.000000
0.000000	543.000000	130513.000000	0.000000	1678603312.379100	0.000000
0.000000	543.000000	130498.000000	0.000000	1678603312.396497	0.000000
0.000000	542.000000	130545.000000	0.000000	1678603312.411597	0.000000
0.000000	543.000000	130522.000000	0.000000	1678603312.426696	0.000000
0.000000	543.000000	130575.000000	0.000000	1678603312.441795	0.000000
0.000000	543.000000	130509.000000	0.000000	1678603312.456894	0.000000
0.000000	544.000000	130534.000000	0.000000	1678603312.471993	0.000000
0.000000	543.000000	130525.000000	0.000000	1678603312.487092	0.000000
0.000000	544.000000	130609.000000	0.000000	1678603312.504504	0.000000
0.000000	543.000000	130547.000000	0.000000	1678603312.521915	0.000000
0.000000	544.000000	130573.000000	0.000000	1678603312.539326	0.000000
0.000000	543.000000	130588.000000	0.000000	1678603312.556737	0.000000
0.000000	543.000000	130605.000000	0.000000	1678603312.574149	0.000000
0.000000	543.000000	130628.000000	0.000000	1678603312.591560	0.000000
0.000000	543.000000	130635.000000	0.000000	1678603312.604494	0.000000
0.000000	543.000000	130666.000000	0.000000	1678603312.617428	0.000000
0.000000	544.000000	130599.000000	0.000000	1678603312.630361	0.000000
0.000000	543.000000	130638.000000	0.000000	1678603312.643295	0.000000
0.000000	543.000000	130614.000000	0.000000	1678603312.656229	0.000000
0.000000	543.000000	130594.000000	0.000000	1678603312.669163	0.000000
0.000000	542.000000	130603.000000	0.000000	1678603312.685926	0.000000
0.000000	543.000000	130586.000000	0.000000	1678603312.702690	0.000000
0.000000	542.000000	130530.000000	0.000000	1678603312.719454	0.000000
0.000000	543.000000	130557.000000	0.000000	1678603312.736218	0.000000
0.000000	543.000000	130544.000000	0.000000	1678603312.752981	0.000000
0.000000	543.000000	130550.000000	0.000000	1678603312.769745	0.000000
0.000000	543.000000	130523.000000	0.000000	1678603312.785373	0.000000
0.000000	542.000000	130565.000000	0.000000	1678603312.801001	0.000000
0.000000	543.000000	130517.000000	0.000000	1678603312.816629	0.000000
0.000000	542.000000	130502.000000	0.000000	1678603312.832258	0.000000
0.000000	541.000000	130549.000000	0.000000	1678603312.847886	0.000000
0.000000	541.000000	130582.000000	0.000000	1678603312.863514	0.000000
0.000000	543.000000	130564.000000	0.000000	1678603312.880674	0.000000
0.000000	541.000000	130575.000000	0.000000	1678603312.897835	0.000000
0.000000	542.000000	130573.000000	0.000000	1678603312.914995	0.000000
0.000000	542.000000	130558.000000	0.000000	1678603312.932156	0.000000
0.000000	542.000000	130565.000000	0.000000	1678603312.949316	0.000000
0.000000	543.000000	130580.000000	0.000000	1678603312.966477	0.000000
0.000000	543.000000	130595.000000	0.000000	1678603312.981237	0.000000
0.000000	544.000000	130602.000000	0.000000	1678603312.995997	0.000000
0.000000	544.000000	130612.000000	0.000000	1678603313.010758	0.000000
0.000000	543.000000	130632.000000	0.000000	1678603313.025518	0.000000
0.000000	543.000000	130577.000000	0.000000	1678603313.040279	0.000000
0.000000	543.000000	130640.000000	0.000000	1678603313.055039	0.000000
0.000000	542.000000	130591.000000	0.000000	1678603313.069871	0.000000
0.000000	542.000000	130657.000000	0.000000	1678603313.084704	0.000000
0.000000	542.000000	130677.000000	0.000000	1678603313.099536	0.000000
0.000000	541.000000	130684.000000	0.000000	1678603313.114369	0.000000
0.000000	541.000000	130719.000000	0.000000	1678603313.129201	0.000000
0.000000	542.000000	130619.000000	0.000000	1678603313.144033	0.000000
0.000000	541.000000	130663.000000	0.000000	1678603313.159582	0.000000
0.000000	542.000000	130665.000000	0.000000	1678603313.175131	0.000000
0.000000	542.000000	130715.000000	0.000000	1678603313.190680	0.000000
0.000000	542.000000	130694.000000	0.000000	1678603313.206229	0.000000
0.000000	542.000000	130704.000000	0.000000	1678603313.221777	0.000000
0.000000	542.000000	130667.000000	0.000000	1678603313.237326	0.000000
0.000000	542.000000	130702.000000	0.000000	1678603313.252313	0.000000
0.000000	540.000000	130734.000000	0.000000	1678603313.267300	0.000000
0.000000	542.000000	130678.000000	0.000000	1678603313.282286	0.000000
0.000000	542.000000	130714.000000	0.000000	1678603313.297273	0.000000
0.000000	543.000000	130767.000000	0.000000	1678603313.312260	0.000000
0.000000	543.000000	130758.000000	0.000000	1678603313.327246	0.000000
0.000000	544.000000	130778.000000	0.000000	1678603313.344247	0.000000
0.000000	541.000000	130755.000000	0.000000	1678603313.361247	0.000000
0.000000	543.000000	130748.000000	0.000000	1678603313.378248	0.000000
0.000000	543.000000	130739.000000	0.000000	1678603313.395248	0.000000
0.000000	542.000000	130757.000000	0.000000	1678603313.412248	0.000000
0.000000	542.000000	130691.000000	0.000000	1678603313.429249	0.000000
0.000000	541.000000	130706.000000	0.000000	1678603313.446917	0.000000
0.000000	542.000000	130632.000000	0.000000	1678603313.464584	0.000000
0.000000	542.000000	130665.000000	0.000000	1678603313.482252	0.000000
0.000000	541.000000	130632.000000	0.000000	1678603313.499920	0.000000
0.000000	542.000000	130594.000000	0.000000	1678603313.517588	0.000000
0.000000	542.000000	130603.000000	0.000000	1678603313.535256	0.000000
0.000000	543.000000	130607.000000	0.000000	1678603313.547947	0.000000
0.000000	542.000000	130625.000000	0.000000	1678603313.560639	0.000000
0.000000	540.000000	130601.000000	0.000000	1678603313.573330	0.000000
0.000000	542.000000	130604.000000	0.000000	1678603313.586022	0.000000
0.000000	542.000000	130601.000000	0.000000	1678603313.598714	0.000000
0.000000	542.000000	130597.000000	0.000000	1678603313.611405	0.000000
0.000000	542.000000	130580.000000	0.000000	1678603313.626520	0.000000
0.000000	542.000000	130550.000000	0.000000	1678603313.641634	0.000000
0.000000	542.000000	130588.000000	0.000000	1678603313.656749	0.000000
0.000000	542.000000	130581.000000	0.000000	1678603313.671864	0.000000
0.000000	542.000000	130558.000000	0.000000	1678603313.686978	0.000000
0.000000	541.000000	130569.000000	0.000000	1678603313.702093	0.000000
0.000000	542.000000	130590.000000	0.000000	1678603313.717118	0.000000
0.000000	542.000000	130588.000000	0.000000	1678603313.732142	0.000000
0.000000	543.000000	130580.000000	0.000000	1678603313.747167	0.000000
0.000000	542.000000	130592.000000	0.000000	1678603313.762192	0.000000
0.000000	542.000000	130555.000000	0.000000	1678603313.777217	0.000000
0.000000	540.000000	130551.000000	0.000000	1678603313.792242	0.000000
0.000000	543.000000	130590.000000	0.000000	1678603313.809527	0.000000
0.000000	542.000000	130580.000000	0.000000	1678603313.826812	0.000000
0.000000	543.000000	130612.000000	0.000000	1678603313.844097	0.000000
0.000000	542.000000	130593.000000	0.000000	1678603313.861382	0.000000
0.000000	542.000000	130589.000000	0.000000	1678603313.878668	0.000000
0.000000	542.000000	130560.000000	0.000000	1678603313.895953	0.000000
0.000000	541.000000	130634.000000	0.000000	1678603313.913556	0.000000
0.000000	542.000000	130582.000000	0.000000	1678603313.931159	0.000000
0.000000	542.000000	130609.000000	0.000000	1678603313.948761	0.000000
0.000000	543.000000	130590.000000	0.000000	1678603313.966365	0.000000
0.000000	543.000000	130574.000000	0.000000	1678603313.983968	0.000000
0.000000	543.000000	130601.000000	0.000000	1678603314.001570	0.000000
0.000000	543.000000	130640.000000	0.000000	1678603314.014174	0.000000
0.000000	542.000000	130620.000000	0.000000	1678603314.026778	0.000000
0.000000	544.000000	130602.000000	0.000000	1678603314.039382	0.000000
0.000000	543.000000	130580.000000	0.000000	1678603314.051986	0.000000
0.000000	543.000000	130630.000000	0.000000	1678603314.064590	0.000000
0.000000	543.000000	130595.000000	0.000000	1678603314.077194	0.000000
0.000000	542.000000	130562.000000	0.000000	1678603314.092248	0.000000
0.000000	542.000000	130583.000000	0.000000	1678603314.107302	0.000000
0.000000	541.000000	130496.000000	0.000000	1678603314.122355	0.000000
0.000000	541.000000	130524.000000	0.000000	1678603314.137409	0.000000
0.000000	541.000000	130476.000000	0.000000	1678603314.152463	0.000000
0.000000	542.000000	130421.000000	0.000000	1678603314.167517	0.000000
0.000000	544.000000	130383.000000	0.000000	1678603314.184721	0.000000
0.000000	542.000000	130386.000000	0.000000	1678603314.201925	0.000000
0.000000	544.000000	130356.000000	0.000000	1678603314.219129	0.000000
0.000000	543.000000	130372.000000	0.000000	1678603314.236332	0.000000
0.000000	543.000000	130349.000000	0.000000	1678603314.253536	0.000000
0.000000	543.000000	130293.000000	0.000000	1678603314.270740	0.000000
0.000000	543.000000	130308.000000	0.000000	1678603314.285848	0.000000
0.000000	543.000000	130319.000000	0.000000	1678603314.300956	0.000000
0.000000	544.000000	130256.000000	0.000000	1678603314.316064	0.000000
0.000000	544.000000	130270.000000	0.000000	1678603314.331172	0.000000
0.000000	545.000000	130286.000000	0.000000	1678603314.346280	0.000000
0.000000	543.000000	130286.000000	0.000000	1678603314.361387	0.000000
0.000000	544.000000	130211.000000	0.000000	1678603314.376575	0.000000
0.000000	544.000000	130270.000000	0.000000	1678603314.391762	0.000000
0.000000	544.000000	130280.000000	0.000000	1678603314.406949	0.000000
0.000000	544.000000	130261.000000	0.000000	1678603314.422136	0.000000
0.000000	546.000000	130256.000000	0.000000	1678603314.437323	0.000000
0.000000	545.000000	130305.000000	0.000000	1678603314.452510	0.000000
0.000000	545.000000	130302.000000	0.000000	1678603314.467456	0.000000
0.000000	544.000000	130273.000000	0.000000	1678603314.482402	0.000000
0.000000	544.000000	130309.000000	0.000000	1678603314.497347	0.000000
0.000000	543.000000	130325.000000	0.000000	1678603314.512293	0.000000
0.000000	544.000000	130332.000000	0.000000	1678603314.527239	0.000000
0.000000	546.000000	130346.000000	0.000000	1678603314.542185	0.000000
0.000000	545.000000	130383.000000	0.000000	1678603314.559229	0.000000
0.000000	546.000000	130336.000000	0.000000	1678603314.576273	0.000000
0.000000	545.000000	130354.000000	0.000000	1678603314.593317	0.000000
0.000000	543.000000	130438.000000	0.000000	1678603314.610361	0.000000
0.000000	547.000000	130403.000000	0.000000	1678603314.627405	0.000000
0.000000	546.000000	130333.000000	0.000000	1678603314.644449	0.000000
0.000000	545.000000	130483.000000	0.000000	1678603314.660406	0.000000
0.000000	546.000000	130433.000000	0.000000	1678603314.676363	0.000000
0.000000	546.000000	130484.000000	0.000000	1678603314.692320	0.000000
0.000000	546.000000	130482.000000	0.000000	1678603314.708277	0.000000
0.000000	545.000000	130480.000000	0.000000	1678603314.724235	0.000000
0.000000	545.000000	130530.000000	0.000000	1678603314.740192	0.000000
0.000000	545.000000	130551.000000	0.000000	1678603314.754910	0.000000
0.000000	546.000000	130543.000000	0.000000	1678603314.769629	0.000000
0.000000	546.000000	130473.000000	0.000000	1678603314.784347	0.000000
0.000000	547.000000	130578.000000	0.000000	1678603314.799066	0.000000
0.000000	545.000000	130557.000000	0.000000	1678603314.813784	0.000000
0.000000	546.000000	130569.000000	0.000000	1678603314.828503	0.000000
0.000000	546.000000	130543.000000	0.000000	1678603314.843539	0.000000
0.000000	546.000000	130590.000000	0.000000	1678603314.858574	0.000000
0.000000	546.000000	130611.000000	0.000000	1678603314.873610	0.000000
0.000000	546.000000	130590.000000	0.000000	1678603314.888646	0.000000
0.000000	545.000000	130577.000000	0.000000	1678603314.903682	0.000000
0.000000	545.000000	130569.000000	0.000000	1678603314.918718	0.000000
0.000000	544.000000	130649.000000	0.000000	1678603314.938225	0.000000
0.000000	545.000000	130631.000000	0.000000	1678603314.957733	0.000000
0.000000	545.000000	130640.000000	0.000000	1678603314.977241	0.000000
0.000000	544.000000	130610.000000	0.000000	1678603314.996748	0.000000
0.000000	547.000000	130592.000000	0.000000	1678603315.016256	0.000000
0.000000	546.000000	130612.000000	0.000000	1678603315.035764	0.000000
0.000000	546.000000	130630.000000	0.000000	1678603315.048425	0.000000
0.000000	547.000000	130554.000000	0.000000	1678603315.061087	0.000000
0.000000	546.000000	130606.000000	0.000000	1678603315.073749	0.000000
0.000000	547.000000	130577.000000	0.000000	1678603315.086411	0.000000
0.000000	545.000000	130548.000000	0.000000	1678603315.099073	0.000000
0.000000	545.000000	130580.000000	0.000000	1678603315.111735	0.000000
0.000000	547.000000	130544.000000	0.000000	1678603315.126989	0.000000
0.000000	545.000000	130553.000000	0.000000	1678603315.142242	0.000000
0.000000	544.000000	130533.000000	0.000000	1678603315.157496	0.000000
0.000000	546.000000	130531.000000	0.000000	1678603315.172750	0.000000
0.000000	546.000000	130491.000000	0.000000	1678603315.188003	0.000000
0.000000	545.000000	130544.000000	0.000000	1678603315.203257	0.000000
0.000000	545.000000	130539.000000	0.000000	1678603315.218110	0.000000
0.000000	545.000000	130540.000000	0.000000	1678603315.232962	0.000000
0.000000	544.000000	130546.000000	0.000000	1678603315.247815	0.000000
0.000000	544.000000	130540.000000	0.000000	1678603315.262667	0.000000
0.000000	543.000000	130488.000000	0.000000	1678603315.277520	0.000000
0.000000	542.000000	130500.000000	0.000000	1678603315.292373	0.000000
0.000000	541.000000	130533.000000	0.000000	1678603315.312090	0.000000
0.000000	543.000000	130552.000000	0.000000	1678603315.331807	0.000000
0.000000	543.000000	130532.000000	0.000000	1678603315.351525	0.000000
0.000000	542.000000	130522.000000	0.000000	1678603315.371242	0.000000
0.000000	543.000000	130503.000000	0.000000	1678603315.390959	0.000000
0.000000	543.000000	130576.000000	0.000000	1678603315.410676	0.000000
0.000000	542.000000	130639.000000	0.000000	1678603315.423490	0.000000
0.000000	541.000000	130582.000000	0.000000	1678603315.436304	0.000000
0.000000	542.000000	130582.000000	0.000000	1678603315.449118	0.000000
0.000000	540.000000	130624.000000	0.000000	1678603315.461931	0.000000
0.000000	543.000000	130601.000000	0.000000	1678603315.474745	0.000000
0.000000	541.000000	130597.000000	0.000000	1678603315.487559	0.000000
0.000000	542.000000	130594.000000	0.000000	1678603315.502963	0.000000
0.000000	541.000000	130637.000000	0.000000	1678603315.518367	0.000000
0.000000	541.000000	130623.000000	0.000000	1678603315.533771	0.000000
0.000000	542.000000	130644.000000	0.000000	1678603315.549175	0.000000
0.000000	541.000000	130607.000000	0.000000	1678603315.564579	0.000000
0.000000	541.000000	130654.000000	0.000000	1678603315.579983	0.000000
0.000000	541.000000	130668.000000	0.000000	1678603315.595067	0.000000
0.000000	541.000000	130643.000000	0.000000	1678603315.610151	0.000000
0.000000	542.000000	130705.000000	0.000000	1678603315.625235	0.000000
0.000000	543.000000	130705.000000	0.000000	1678603315.640318	0.000000
0.000000	542.000000	130643.000000	0.000000	1678603315.655402	0.000000
0.000000	543.000000	130726.000000	0.000000	1678603315.670486	0.000000
0.000000	541.000000	130735.000000	0.000000	1678603315.687020	0.000000
0.000000	542.000000	130706.000000	0.000000	1678603315.703553	0.000000
0.000000	541.000000	130717.000000	0.000000	1678603315.720087	0.000000
0.000000	541.000000	130742.000000	0.000000	1678603315.736621	0.000000
0.000000	542.000000	130694.000000	0.000000	1678603315.753155	0.000000
0.000000	541.000000	130737.000000	0.000000	1678603315.769689	0.000000
0.000000	541.000000	130777.000000	0.000000	1678603315.784989	0.000000
0.000000	542.000000	130747.000000	0.000000	1678603315.800290	0.000000
0.000000	541.000000	130773.000000	0.000000	1678603315.815591	0.000000
0.000000	542.000000	130797.000000	0.000000	1678603315.830892	0.000000
0.000000	539.000000	130759.000000	0.000000	1678603315.846193	0.000000
0.000000	541.000000	130820.000000	0.000000	1678603315.861494	0.000000
0.000000	541.000000	130812.000000	0.000000	1678603315.876759	0.000000
0.000000	540.000000	130854.000000	0.000000	1678603315.892023	0.000000
0.000000	540.000000	130830.000000	0.000000	1678603315.907288	0.000000
0.000000	541.000000	130877.000000	0.000000	1678603315.922553	0.000000
0.000000	540.000000	130844.000000	0.000000	1678603315.937818	0.000000
0.000000	541.000000	130853.000000	0.000000	1678603315.953083	0.000000
0.000000	540.000000	130815.000000	0.000000	1678603315.968372	0.000000
0.000000	541.000000	130861.000000	0.000000	1678603315.983661	0.000000
0.000000	540.000000	130799.000000	0.000000	1678603315.998950	0.000000
0.000000	539.000000	130845.000000	0.000000	1678603316.014239	0.000000
0.000000	541.000000	130813.000000	0.000000	1678603316.029528	0.000000
0.000000	540.000000	130798.000000	0.000000	1678603316.044817	0.000000
0.000000	541.000000	130777.000000	0.000000	1678603316.061429	0.000000
0.000000	540.000000	130810.000000	0.000000	1678603316.078040	0.000000
0.000000	541.000000	130755.000000	0.000000	1678603316.094652	0.000000
0.000000	541.000000	130786.000000	0.000000	1678603316.111264	0.000000
0.000000	540.000000	130757.000000	0.000000	1678603316.127875	0.000000
0.000000	540.000000	130735.000000	0.000000	1678603316.144487	0.000000
0.000000	540.000000	130782.000000	0.000000	1678603316.159944	0.000000
0.000000	540.000000	130789.000000	0.000000	1678603316.175401	0.000000
0.000000	540.000000	130804.000000	0.000000	1678603316.190858	0.000000
0.000000	541.000000	130802.000000	0.000000	1678603316.206315	0.000000
0.000000	540.000000	130760.000000	0.000000	1678603316.221771	0.000000
0.000000	541.000000	130814.000000	0.000000	1678603316.237228	0.000000
0.000000	539.000000	130809.000000	0.000000	1678603316.252404	0.000000
0.000000	539.000000	130797.000000	0.000000	1678603316.267580	0.000000
0.000000	540.000000	130805.000000	0.000000	1678603316.282756	0.000000
0.000000	540.000000	130828.000000	0.000000	1678603316.297931	0.000000
0.000000	540.000000	130829.000000	0.000000	1678603316.313107	0.000000
0.000000	539.000000	130844.000000	0.000000	1678603316.328283	0.000000
0.000000	538.000000	130796.000000	0.000000	1678603316.350290	0.000000
0.000000	541.000000	130855.000000	0.000000	1678603316.372298	0.000000
0.000000	540.000000	130823.000000	0.000000	1678603316.394305	0.000000
0.000000	539.000000	130806.000000	0.000000	1678603316.416312	0.000000
0.000000	540.000000	130853.000000	0.000000	1678603316.438319	0.000000
0.000000	541.000000	130879.000000	0.000000	1678603316.460326	0.000000
0.000000	541.000000	130856.000000	0.000000	1678603316.470166	0.000000
0.000000	541.000000	130843.000000	0.000000	1678603316.480005	0.000000
0.000000	541.000000	130903.000000	0.000000	1678603316.489844	0.000000
0.000000	540.000000	130920.000000	0.000000	1678603316.499683	0.000000
0.000000	540.000000	130853.000000	0.000000	1678603316.509523	0.000000
0.000000	540.000000	130934.000000	0.000000	1678603316.519362	0.000000
0.000000	541.000000	130949.000000	0.000000	1678603316.537221	0.000000
0.000000	539.000000	130951.000000	0.000000	1678603316.555081	0.000000
0.000000	540.000000	130945.000000	0.000000	1678603316.572940	0.000000
0.000000	540.000000	130919.000000	0.000000	1678603316.590799	0.000000
0.000000	540.000000	130917.000000	0.000000	1678603316.608659	0.000000
0.000000	540.000000	130967.000000	0.000000	1678603316.626518	0.000000
0.000000	540.000000	130944.000000	0.000000	1678603316.641185	0.000000
0.000000	539.000000	130996.000000	0.000000	1678603316.655851	0.000000
0.000000	540.000000	131011.000000	0.000000	1678603316.670517	0.000000
0.000000	540.000000	131008.000000	0.000000	1678603316.685184	0.000000
0.000000	540.000000	131031.000000	0.000000	1678603316.699850	0.000000
0.000000	541.000000	130977.000000	0.000000	1678603316.714517	0.000000
0.000000	539.000000	131057.000000	0.000000	1678603316.727510	0.000000
0.000000	541.000000	131068.000000	0.000000	1678603316.740503	0.000000
0.000000	541.000000	131030.000000	0.000000	1678603316.753495	0.000000
0.000000	541.000000	131040.000000	0.000000	1678603316.766488	0.000000
0.000000	542.000000	131049.000000	0.000000	1678603316.779481	0.000000
0.000000	541.000000	131067.000000	0.000000	1678603316.792474	0.000000
0.000000	543.000000	131078.000000	0.000000	1678603316.809689	0.000000
0.000000	542.000000	131110.000000	0.000000	1678603316.826904	0.000000
0.000000	542.000000	131096.000000	0.000000	1678603316.844119	0.000000
0.000000	541.000000	131101.000000	0.000000	1678603316.861333	0.000000
0.000000	543.000000	131111.000000	0.000000	1678603316.878548	0.000000
0.000000	542.000000	131152.000000	0.000000	1678603316.895763	0.000000
0.000000	542.000000	131155.000000	0.000000	1678603316.910998	0.000000
0.000000	542.000000	131140.000000	0.000000	1678603316.926232	0.000000
0.000000	541.000000	131133.000000	0.000000	1678603316.941467	0.000000
0.000000	542.000000	131167.000000	0.000000	1678603316.956701	0.000000
0.000000	540.000000	131137.000000	0.000000	1678603316.971936	0.000000
0.000000	540.000000	131140.000000	0.000000	1678603316.987170	0.000000
0.000000	541.000000	131148.000000	0.000000	1678603317.002200	0.000000
0.000000	542.000000	131126.000000	0.000000	1678603317.017229	0.000000
0.000000	542.000000	131113.000000	0.000000	1678603317.032258	0.000000
0.000000	542.000000	131136.000000	0.000000	1678603317.047287	0.000000
0.000000	542.000000	131128.000000	0.000000	1678603317.062316	0.000000
0.000000	542.000000	131113.000000	0.000000	1678603317.077345	0.000000
0.000000	542.000000	131067.000000	0.000000	1678603317.094832	0.000000
0.000000	543.000000	131084.000000	0.000000	1678603317.112319	0.000000
0.000000	542.000000	131066.000000	0.000000	1678603317.129805	0.000000
0.000000	542.000000	131129.000000	0.000000	1678603317.147292	0.000000
0.000000	543.000000	131090.000000	0.000000	1678603317.164779	0.000000
0.000000	543.000000	131067.000000	0.000000	1678603317.182265	0.000000
0.000000	543.000000	131134.000000	0.000000	1678603317.197684	0.000000
0.000000	544.000000	131105.000000	0.000000	1678603317.213102	0.000000
0.000000	543.000000	131111.000000	0.000000	1678603317.228520	0.000000
0.000000	543.000000	131095.000000	0.000000	1678603317.243938	0.000000
0.000000	542.000000	131116.000000	0.000000	1678603317.259356	0.000000
0.000000	543.000000	131138.000000	0.000000	1678603317.274775	0.000000
0.000000	542.000000	131117.000000	0.000000	1678603317.289218	0.000000
0.000000	543.000000	131134.000000	0.000000	1678603317.303661	0.000000
0.000000	542.000000	131151.000000	0.000000	1678603317.318104	0.000000
0.000000	541.000000	131186.000000	0.000000	1678603317.332548	0.000000
0.000000	544.000000	131114.000000	0.000000	1678603317.346991	0.000000
0.000000	542.000000	131110.000000	0.000000	1678603317.361434	0.000000
0.000000	542.000000	131147.000000	0.000000	1678603317.376634	0.000000
0.000000	543.000000	131143.000000	0.000000	1678603317.391834	0.000000
0.000000	543.000000	131165.000000	0.000000	1678603317.407034	0.000000
0.000000	542.000000	131176.000000	0.000000	1678603317.422234	0.000000
0.000000	544.000000	131193.000000	0.000000	1678603317.437434	0.000000
0.000000	542.000000	131174.000000	0.000000	1678603317.452634	0.000000
0.000000	545.000000	131205.000000	0.000000	1678603317.470230	0.000000
0.000000	545.000000	131217.000000	0.000000	1678603317.487826	0.000000
0.000000	544.000000	131180.000000	0.000000	1678603317.505423	0.000000
0.000000	544.000000	131229.000000	0.000000	1678603317.523019	0.000000
0.000000	544.000000	131250.000000	0.000000	1678603317.540615	0.000000
0.000000	543.000000	131218.000000	0.000000	1678603317.558211	0.000000
0.000000	543.000000	131239.000000	0.000000	1678603317.575010	0.000000
0.000000	544.000000	131277.000000	0.000000	1678603317.591809	0.000000
0.000000	544.000000	131281.000000	0.000000	1678603317.608608	0.000000
0.000000	545.000000	131275.000000	0.000000	1678603317.625407	0.000000
0.000000	542.000000	131289.000000	0.000000	1678603317.642206	0.000000
0.000000	543.000000	131277.000000	0.000000	1678603317.659005	0.000000
0.000000	543.000000	131308.000000	0.000000	1678603317.674203	0.000000
0.000000	545.000000	131328.000000	0.000000	1678603317.689401	0.000000
0.000000	543.000000	131307.000000	0.000000	1678603317.704599	0.000000
0.000000	544.000000	131312.000000	0.000000	1678603317.719797	0.000000
0.000000	543.000000	131339.000000	0.000000	1678603317.734995	0.000000
0.000000	544.000000	131348.000000	0.000000	1678603317.750193	0.000000
0.000000	542.000000	131342.000000	0.000000	1678603317.763038	0.000000
0.000000	543.000000	131346.000000	0.000000	1678603317.775883	0.000000
0.000000	542.000000	131323.000000	0.000000	1678603317.788728	0.000000
0.000000	544.000000	131395.000000	0.000000	1678603317.801574	0.000000
0.000000	544.000000	131375.000000	0.000000	1678603317.814419	0.000000
0.000000	543.000000	131399.000000	0.000000	1678603317.827264	0.000000
0.000000	544.000000	131419.000000	0.000000	1678603317.842259	0.000000
0.000000	543.000000	131395.000000	0.000000	1678603317.857254	0.000000
0.000000	545.000000	131360.000000	0.000000	1678603317.872249	0.000000
0.000000	545.000000	131361.000000	0.000000	1678603317.887244	0.000000
0.000000	544.000000	131361.000000	0.000000	1678603317.902239	0.000000
0.000000	544.000000	131361.000000	0.000000	1678603317.917234	0.000000
0.000000	544.000000	131361.000000	0.000000	1678603317.934902	0.000000
0.000000	543.000000	131333.000000	0.000000	1678603317.952571	0.000000
0.000000	545.000000	131342.000000	0.000000	1678603317.970239	0.000000
0.000000	543.000000	131340.000000	0.000000	1678603317.987908	0.000000
0.000000	544.000000	131258.000000	0.000000	1678603318.005576	0.000000
0.000000	543.000000	131258.000000	0.000000	1678603318.023245	0.000000
0.000000	544.000000	131279.000000	0.000000	1678603318.037932	0.000000
0.000000	543.000000	131316.000000	0.000000	1678603318.052619	0.000000
0.000000	544.000000	131280.000000	0.000000	1678603318.067306	0.000000
0.000000	542.000000	131277.000000	0.000000	1678603318.081993	0.000000
0.000000	545.000000	131248.000000	0.000000	1678603318.096680	0.000000
0.000000	544.000000	131274.000000	0.000000	1678603318.111367	0.000000
0.000000	542.000000	131239.000000	0.000000	1678603318.128382	0.000000
0.000000	544.000000	131226.000000	0.000000	1678603318.145397	0.000000
0.000000	544.000000	131259.000000	0.000000	1678603318.162412	0.000000
0.000000	545.000000	131265.000000	0.000000	1678603318.179426	0.000000
0.000000	546.000000	131158.000000	0.000000	1678603318.196441	0.000000
0.000000	545.000000	131227.000000	0.000000	1678603318.213456	0.000000
0.000000	545.000000	131205.000000	0.000000	1678603318.226713	0.000000
0.000000	545.000000	131238.000000	0.000000	1678603318.239970	0.000000
0.000000	544.000000	131210.000000	0.000000	1678603318.253227	0.000000
0.000000	545.000000	131232.000000	0.000000	1678603318.266484	0.000000
0.000000	546.000000	131225.000000	0.000000	1678603318.279741	0.000000
0.000000	545.000000	131182.000000	0.000000	1678603318.292998	0.000000
0.000000	545.000000	131179.000000	0.000000	1678603318.309818	0.000000
0.000000	544.000000	131208.000000	0.000000	1678603318.326637	0.000000
0.000000	544.000000	131183.000000	0.000000	1678603318.343456	0.000000
0.000000	545.000000	131223.000000	0.000000	1678603318.360275	0.000000
0.000000	544.000000	131191.000000	0.000000	1678603318.377094	0.000000
0.000000	545.000000	131222.000000	0.000000	1678603318.393914	0.000000
0.000000	544.000000	131179.000000	0.000000	1678603318.409405	0.000000
0.000000	544.000000	131198.000000	0.000000	1678603318.424897	0.000000
0.000000	544.000000	131228.000000	0.000000	1678603318.440388	0.000000
0.000000	544.000000	131204.000000	0.000000	1678603318.455880	0.000000
0.000000	543.000000	131171.000000	0.000000	1678603318.471371	0.000000
0.000000	545.000000	131204.000000	0.000000	1678603318.486863	0.000000
0.000000	543.000000	131234.000000	0.000000	1678603318.502183	0.000000
0.000000	545.000000	131239.000000	0.000000	1678603318.517503	0.000000
0.000000	545.000000	131196.000000	0.000000	1678603318.532823	0.000000
0.000000	545.000000	131243.000000	0.000000	1678603318.548142	0.000000
0.000000	545.000000	131205.000000	0.000000	1678603318.563462	0.000000
0.000000	545.000000	131208.000000	0.000000	1678603318.578782	0.000000
0.000000	546.000000	131218.000000	0.000000	1678603318.593891	0.000000
0.000000	545.000000	131188.000000	0.000000	1678603318.609000	0.000000
0.000000	545.000000	131219.000000	0.000000	1678603318.624109	0.000000
0.000000	545.000000	131281.000000	0.000000	1678603318.639218	0.000000
0.000000	544.000000	131212.000000	0.000000	1678603318.654327	0.000000
0.000000	545.000000	131246.000000	0.000000	1678603318.669436	0.000000
0.000000	547.000000	131236.000000	0.000000	1678603318.686033	0.000000
0.000000	545.000000	131226.000000	0.000000	1678603318.702631	0.000000
0.000000	545.000000	131241.000000	0.000000	1678603318.719228	0.000000
0.000000	544.000000	131241.000000	0.000000	1678603318.735825	0.000000
0.000000	544.000000	131175.000000	0.000000	1678603318.752422	0.000000
0.000000	545.000000	131169.000000	0.000000	1678603318.769019	0.000000
0.000000	544.000000	131192.000000	0.000000	1678603318.784427	0.000000
0.000000	544.000000	131143.000000	0.000000	1678603318.799835	0.000000
0.000000	545.000000	131156.000000	0.000000	1678603318.815244	0.000000
0.000000	543.000000	131147.000000	0.000000	1678603318.830652	0.000000
0.000000	543.000000	131065.000000	0.000000	1678603318.846060	0.000000
0.000000	544.000000	131083.000000	0.000000	1678603318.861468	0.000000
0.000000	544.000000	131045.000000	0.000000	1678603318.876657	0.000000
0.000000	545.000000	130989.000000	0.000000	1678603318.891845	0.000000
0.000000	544.000000	130992.000000	0.000000	1678603318.907034	0.000000
0.000000	544.000000	130960.000000	0.000000	1678603318.922222	0.000000
0.000000	545.000000	130887.000000	0.000000	1678603318.937411	0.000000
0.000000	544.000000	130906.000000	0.000000	1678603318.952600	0.000000
0.000000	545.000000	130852.000000	0.000000	1678603318.967711	0.000000
0.000000	543.000000	130868.000000	0.000000	1678603318.982823	0.000000
0.000000	544.000000	130813.000000	0.000000	1678603318.997935	0.000000
0.000000	544.000000	130844.000000	0.000000	1678603319.013047	0.000000
0.000000	544.000000	130807.000000	0.000000	1678603319.028159	0.000000
0.000000	545.000000	130788.000000	0.000000	1678603319.043270	0.000000
0.000000	542.000000	130825.000000	0.000000	1678603319.060494	0.000000
0.000000	544.000000	130783.000000	0.000000	1678603319.077718	0.000000
0.000000	543.000000	130774.000000	0.000000	1678603319.094942	0.000000
0.000000	543.000000	130755.000000	0.000000	1678603319.112165	0.000000
0.000000	544.000000	130710.000000	0.000000	1678603319.129389	0.000000
0.000000	544.000000	130688.000000	0.000000	1678603319.146613	0.000000
0.000000	544.000000	130721.000000	0.000000	1678603319.161656	0.000000
0.000000	543.000000	130720.000000	0.000000	1678603319.176699	0.000000
0.000000	544.000000	130674.000000	0.000000	1678603319.191741	0.000000
0.000000	543.000000	130702.000000	0.000000	1678603319.206784	0.000000
0.000000	545.000000	130691.000000	0.000000	1678603319.221827	0.000000
0.000000	544.000000	130666.000000	0.000000	1678603319.236870	0.000000
0.000000	544.000000	130727.000000	0.000000	1678603319.252157	0.000000
0.000000	546.000000	130678.000000	0.000000	1678603319.267444	0.000000
0.000000	543.000000	130630.000000	0.000000	1678603319.282731	0.000000
0.000000	544.000000	130673.000000	0.000000	1678603319.298018	0.000000
0.000000	545.000000	130645.000000	0.000000	1678603319.313305	0.000000
0.000000	544.000000	130675.000000	0.000000	1678603319.328592	0.000000
0.000000	544.000000	130670.000000	0.000000	1678603319.345385	0.000000
0.000000	544.000000	130668.000000	0.000000	1678603319.362178	0.000000
0.000000	544.000000	130656.000000	0.000000	1678603319.378970	0.000000
0.000000	544.000000	130641.000000	0.000000	1678603319.395763	0.000000
0.000000	544.000000	130644.000000	0.000000	1678603319.412556	0.000000
0.000000	544.000000	130683.000000	0.000000	1678603319.429348	0.000000
0.000000	544.000000	130674.000000	0.000000	1678603319.444502	0.000000
0.000000	543.000000	130634.000000	0.000000	1678603319.459655	0.000000
0.000000	545.000000	130657.000000	0.000000	1678603319.474808	0.000000
0.000000	543.000000	130674.000000	0.000000	1678603319.489961	0.000000
0.000000	543.000000	130646.000000	0.000000	1678603319.505114	0.000000
0.000000	545.000000	130630.000000	0.000000	1678603319.520267	0.000000
0.000000	542.000000	130610.000000	0.000000	1678603319.535267	0.000000
0.000000	543.000000	130658.000000	0.000000	1678603319.550267	0.000000
0.000000	545.000000	130650.000000	0.000000	1678603319.565267	0.000000
0.000000	544.000000	130645.000000	0.000000	1678603319.580267	0.000000
0.000000	545.000000	130640.000000	0.000000	1678603319.595267	0.000000
0.000000	545.000000	130657.000000	0.000000	1678603319.610267	0.000000
0.000000	543.000000	130652.000000	0.000000	1678603319.628334	0.000000
0.000000	545.000000	130590.000000	0.000000	1678603319.646400	0.000000
0.000000	544.000000	130592.000000	0.000000	1678603319.664467	0.000000
0.000000	544.000000	130548.000000	0.000000	1678603319.682533	0.000000
0.000000	545.000000	130548.000000	0.000000	1678603319.700600	0.000000
0.000000	545.000000	130508.000000	0.000000	1678603319.718666	0.000000
0.000000	543.000000	130499.000000	0.000000	1678603319.732856	0.000000
0.000000	544.000000	130467.000000	0.000000	1678603319.747046	0.000000
0.000000	544.000000	130411.000000	0.000000	1678603319.761235	0.000000
0.000000	544.000000	130412.000000	0.000000	1678603319.775425	0.000000
0.000000	545.000000	130348.000000	0.000000	1678603319.789615	0.000000
0.000000	544.000000	130305.000000	0.000000	1678603319.803805	0.000000
0.000000	544.000000	130259.000000	0.000000	1678603319.821338	0.000000
0.000000	545.000000	130271.000000	0.000000	1678603319.838871	0.000000
0.000000	544.000000	130245.000000	0.000000	1678603319.856404	0.000000
0.000000	542.000000	130160.000000	0.000000	1678603319.873937	0.000000
0.000000	544.000000	130137.000000	0.000000	1678603319.891471	0.000000
0.000000	544.000000	130163.000000	0.000000	1678603319.909004	0.000000
0.000000	542.000000	130134.000000	0.000000	1678603319.921919	0.000000
0.000000	544.000000	130073.000000	0.000000	1678603319.934834	0.000000
0.000000	544.000000	130124.000000	0.000000	1678603319.947749	0.000000
0.000000	544.000000	130139.000000	0.000000	1678603319.960664	0.000000
0.000000	544.000000	130082.000000	0.000000	1678603319.973579	0.000000
0.000000	543.000000	130060.000000	0.000000	1678603319.986494	0.000000
0.000000	544.000000	130041.000000	0.000000	1678603320.001899	0.000000
0.000000	544.000000	130006.000000	0.000000	1678603320.017305	0.000000
0.000000	544.000000	130091.000000	0.000000	1678603320.032712	0.000000
0.000000	543.000000	130075.000000	0.000000	1678603320.048117	0.000000
0.000000	543.000000	130024.000000	0.000000	1678603320.063523	0.000000
0.000000	543.000000	130041.000000	0.000000	1678603320.078929	0.000000
0.000000	543.000000	130025.000000	0.000000	1678603320.093642	0.000000
0.000000	542.000000	130071.000000	0.000000	1678603320.108356	0.000000
0.000000	543.000000	130020.000000	0.000000	1678603320.123069	0.000000
0.000000	544.000000	130024.000000	0.000000	1678603320.137783	0.000000
0.000000	544.000000	130062.000000	0.000000	1678603320.152496	0.000000
0.000000	545.000000	130025.000000	0.000000	1678603320.167209	0.000000
0.000000	542.000000	130015.000000	0.000000	1678603320.184540	0.000000
0.000000	543.000000	130032.000000	0.000000	1678603320.201871	0.000000
0.000000	544.000000	130019.000000	0.000000	1678603320.219202	0.000000
0.000000	543.000000	130008.000000	0.000000	1678603320.236533	0.000000
0.000000	543.000000	130026.000000	0.000000	1678603320.253864	0.000000
0.000000	545.000000	129993.000000	0.000000	1678603320.271195	0.000000
0.000000	543.000000	130014.000000	0.000000	1678603320.286693	0.000000
0.000000	544.000000	129986.000000	0.000000	1678603320.302191	0.000000
0.000000	544.000000	130055.000000	0.000000	1678603320.317690	0.000000
0.000000	544.000000	130036.000000	0.000000	1678603320.333189	0.000000
0.000000	542.000000	130030.000000	0.000000	1678603320.348687	0.000000
0.000000	543.000000	130088.000000	0.000000	1678603320.364185	0.000000
0.000000	543.000000	130069.000000	0.000000	1678603320.379124	0.000000
0.000000	544.000000	130083.000000	0.000000	1678603320.394063	0.000000
0.000000	543.000000	130099.000000	0.000000	1678603320.409002	0.000000
0.000000	545.000000	130075.000000	0.000000	1678603320.423941	0.000000
0.000000	544.000000	130080.000000	0.000000	1678603320.438880	0.000000
0.000000	544.000000	130092.000000	0.000000	1678603320.453819	0.000000
0.000000	544.000000	130125.000000	0.000000	1678603320.470815	0.000000
0.000000	543.000000	130106.000000	0.000000	1678603320.487811	0.000000
0.000000	542.000000	130120.000000	0.000000	1678603320.504807	0.000000
0.000000	543.000000	130091.000000	0.000000	1678603320.521803	0.000000
0.000000	543.000000	130077.000000	0.000000	1678603320.538799	0.000000
0.000000	543.000000	130113.000000	0.000000	1678603320.555794	0.000000
0.000000	542.000000	130066.000000	0.000000	1678603320.570481	0.000000
0.000000	543.000000	130043.000000	0.000000	1678603320.585167	0.000000
0.000000	545.000000	130037.000000	0.000000	1678603320.599854	0.000000
0.000000	543.000000	130031.000000	0.000000	1678603320.614540	0.000000
0.000000	544.000000	129998.000000	0.000000	1678603320.629226	0.000000
0.000000	545.000000	129899.000000	0.000000	1678603320.643912	0.000000
0.000000	544.000000	129909.000000	0.000000	1678603320.659353	0.000000
0.000000	545.000000	129897.000000	0.000000	1678603320.674793	0.000000
0.000000	544.000000	129863.000000	0.000000	1678603320.690234	0.000000
0.000000	543.000000	129836.000000	0.000000	1678603320.705675	0.000000
0.000000	543.000000	129840.000000	0.000000	1678603320.721115	0.000000
0.000000	544.000000	129785.000000	0.000000	1678603320.736556	0.000000
0.000000	543.000000	129839.000000	0.000000	1678603320.751718	0.000000
0.000000	543.000000	129784.000000	0.000000	1678603320.766880	0.000000
0.000000	543.000000	129781.000000	0.000000	1678603320.782042	0.000000
0.000000	544.000000	129765.000000	0.000000	1678603320.797203	0.000000
0.000000	543.000000	129789.000000	0.000000	1678603320.812365	0.000000
0.000000	544.000000	129754.000000	0.000000	1678603320.827527	0.000000
0.000000	543.000000	129741.000000	0.000000	1678603320.842483	0.000000
0.000000	542.000000	129751.000000	0.000000	1678603320.857440	0.000000
0.000000	544.000000	129725.000000	0.000000	1678603320.872396	0.000000
0.000000	543.000000	129743.000000	0.000000	1678603320.887353	0.000000
0.000000	545.000000	129743.000000	0.000000	1678603320.902309	0.000000
0.000000	544.000000	129746.000000	0.000000	1678603320.917266	0.000000
0.000000	544.000000	129709.000000	0.000000	1678603320.934391	0.000000
0.000000	543.000000	129728.000000	0.000000	1678603320.951517	0.000000
0.000000	544.000000	129766.000000	0.000000	1678603320.968642	0.000000
0.000000	544.000000	129713.000000	0.000000	1678603320.985768	0.000000
0.000000	544.000000	129712.000000	0.000000	1678603321.002893	0.000000
0.000000	545.000000	129738.000000	0.000000	1678603321.020019	0.000000
0.000000	544.000000	129746.000000	0.000000	1678603321.035443	0.000000
0.000000	544.000000	129730.000000	0.000000	1678603321.050868	0.000000
0.000000	544.000000	129743.000000	0.000000	1678603321.066292	0.000000
0.000000	545.000000	129783.000000	0.000000	1678603321.081716	0.000000
0.000000	544.000000	129761.000000	0.000000	1678603321.097141	0.000000
0.000000	543.000000	129795.000000	0.000000	1678603321.112565	0.000000
0.000000	545.000000	129816.000000	0.000000	1678603321.127533	0.000000
0.000000	543.000000	129801.000000	0.000000	1678603321.142502	0.000000
0.000000	543.000000	129793.000000	0.000000	1678603321.157470	0.000000
0.000000	543.000000	129815.000000	0.000000	1678603321.172438	0.000000
0.000000	544.000000	129824.000000	0.000000	1678603321.187407	0.000000
0.000000	544.000000	129776.000000	0.000000	1678603321.202375	0.000000
0.000000	543.000000	129852.000000	0.000000	1678603321.219975	0.000000
0.000000	543.000000	129868.000000	0.000000	1678603321.237574	0.000000
0.000000	544.000000	129872.000000	0.000000	1678603321.255173	0.000000
0.000000	542.000000	129885.000000	0.000000	1678603321.272773	0.000000
0.000000	544.000000	129911.000000	0.000000	1678603321.290372	0.000000
0.000000	543.000000	129937.000000	0.000000	1678603321.307972	0.000000
0.000000	543.000000	129946.000000	0.000000	1678603321.322322	0.000000
0.000000	543.000000	129904.000000	0.000000	1678603321.336673	0.000000
0.000000	544.000000	129962.000000	0.000000	1678603321.351024	0.000000
0.000000	543.000000	129959.000000	0.000000	1678603321.365375	0.000000
0.000000	544.000000	129976.000000	0.000000	1678603321.379725	0.000000
0.000000	545.000000	129959.000000	0.000000	1678603321.394076	0.000000
0.000000	546.000000	129977.000000	0.000000	1678603321.409503	0.000000
0.000000	546.000000	130004.000000	0.000000	1678603321.424929	0.000000
0.000000	545.000000	129956.000000	0.000000	1678603321.440355	0.000000
0.000000	545.000000	129946.000000	0.000000	1678603321.455781	0.000000
0.000000	545.000000	129951.000000	0.000000	1678603321.471208	0.000000
0.000000	545.000000	129958.000000	0.000000	1678603321.486634	0.000000
0.000000	544.000000	129951.000000	0.000000	1678603321.502015	0.000000
0.000000	544.000000	129929.000000	0.000000	1678603321.517396	0.000000
0.000000	542.000000	129879.000000	0.000000	1678603321.532777	0.000000
0.000000	545.000000	129909.000000	0.000000	1678603321.548159	0.000000
0.000000	543.000000	129871.000000	0.000000	1678603321.563540	0.000000
0.000000	545.000000	129840.000000	0.000000	1678603321.578921	0.000000
0.000000	543.000000	129865.000000	0.000000	1678603321.596387	0.000000
0.000000	543.000000	129817.000000	0.000000	1678603321.613853	0.000000
0.000000	545.000000	129869.000000	0.000000	1678603321.631318	0.000000
0.000000	544.000000	129863.000000	0.000000	1678603321.648784	0.000000
0.000000	544.000000	129838.000000	0.000000	1678603321.666250	0.000000
0.000000	545.000000	129816.000000	0.000000	1678603321.683716	0.000000
0.000000	545.000000	129849.000000	0.000000	1678603321.697904	0.000000
0.000000	545.000000	129832.000000	0.000000	1678603321.712092	0.000000
0.000000	544.000000	129837.000000	0.000000	1678603321.726280	0.000000
0.000000	546.000000	129854.000000	0.000000	1678603321.740468	0.000000
0.000000	544.000000	129833.000000	0.000000	1678603321.754656	0.000000
0.000000	544.000000	129847.000000	0.000000	1678603321.768844	0.000000
0.000000	545.000000	129840.000000	0.000000	1678603321.784577	0.000000
0.000000	545.000000	129861.000000	0.000000	1678603321.800310	0.000000
0.000000	544.000000	129835.000000	0.000000	1678603321.816042	0.000000
0.000000	544.000000	129908.000000	0.000000	1678603321.831775	0.000000
0.000000	543.000000	129862.000000	0.000000	1678603321.847508	0.000000
0.000000	544.000000	129886.000000	0.000000	1678603321.863241	0.000000
0.000000	543.000000	129917.000000	0.000000	1678603321.880574	0.000000
0.000000	544.000000	129913.000000	0.000000	1678603321.897908	0.000000
0.000000	545.000000	129900.000000	0.000000	1678603321.915242	0.000000
0.000000	545.000000	129921.000000	0.000000	1678603321.932575	0.000000
0.000000	545.000000	129980.000000	0.000000	1678603321.949909	0.000000
0.000000	543.000000	129948.000000	0.000000	1678603321.967242	0.000000
0.000000	542.000000	129935.000000	0.000000	1678603321.982483	0.000000
0.000000	543.000000	129967.000000	0.000000	1678603321.997723	0.000000
0.000000	544.000000	130010.000000	0.000000	1678603322.012964	0.000000
0.000000	545.000000	129950.000000	0.000000	1678603322.028204	0.000000
0.000000	544.000000	130009.000000	0.000000	1678603322.043445	0.000000
0.000000	544.000000	130009.000000	0.000000	1678603322.058685	0.000000
0.000000	545.000000	130019.000000	0.000000	1678603322.075361	0.000000
0.000000	545.000000	130037.000000	0.000000	1678603322.092037	0.000000
0.000000	544.000000	130026.000000	0.000000	1678603322.108714	0.000000
0.000000	546.000000	130101.000000	0.000000	1678603322.125390	0.000000
0.000000	545.000000	130024.000000	0.000000	1678603322.142066	0.000000
0.000000	543.000000	130082.000000	0.000000	1678603322.158742	0.000000
0.000000	545.000000	130087.000000	0.000000	1678603322.171660	0.000000
0.000000	545.000000	130121.000000	0.000000	1678603322.184578	0.000000
0.000000	544.000000	130100.000000	0.000000	1678603322.197497	0.000000
0.000000	543.000000	130092.000000	0.000000	1678603322.210415	0.000000
0.000000	543.000000	130140.000000	0.000000	1678603322.223334	0.000000
0.000000	545.000000	130119.000000	0.000000	1678603322.236252	0.000000
0.000000	544.000000	130175.000000	0.000000	1678603322.251633	0.000000
0.000000	544.000000	130166.000000	0.000000	1678603322.267014	0.000000
0.000000	544.000000	130213.000000	0.000000	1678603322.282395	0.000000
0.000000	543.000000	130203.000000	0.000000	1678603322.297776	0.000000
0.000000	542.000000	130187.000000	0.000000	1678603322.313157	0.000000
0.000000	544.000000	130178.000000	0.000000	1678603322.328538	0.000000
0.000000	542.000000	130147.000000	0.000000	1678603322.343474	0.000000
0.000000	544.000000	130112.000000	0.000000	1678603322.358410	0.000000
0.000000	545.000000	130166.000000	0.000000	1678603322.373346	0.000000
0.000000	544.000000	130192.000000	0.000000	1678603322.388282	0.000000
0.000000	543.000000	130207.000000	0.000000	1678603322.403218	0.000000
0.000000	544.000000	130138.000000	0.000000	1678603322.418154	0.000000
0.000000	545.000000	130154.000000	0.000000	1678603322.435045	0.000000
0.000000	544.000000	130129.000000	0.000000	1678603322.451936	0.000000
0.000000	544.000000	130156.000000	0.000000	1678603322.468827	0.000000
0.000000	544.000000	130155.000000	0.000000	1678603322.485718	0.000000
0.000000	545.000000	130153.000000	0.000000	1678603322.502609	0.000000
0.000000	543.000000	130133.000000	0.000000	1678603322.519500	0.000000
0.000000	544.000000	130111.000000	0.000000	1678603322.534857	0.000000
0.000000	543.000000	130181.000000	0.000000	1678603322.550214	0.000000
0.000000	544.000000	130177.000000	0.000000	1678603322.565570	0.000000
0.000000	543.000000	130082.000000	0.000000	1678603322.580927	0.000000
0.000000	543.000000	130149.000000	0.000000	1678603322.596283	0.000000
0.000000	544.000000	130111.000000	0.000000	1678603322.611640	0.000000
0.000000	544.000000	130158.000000	0.000000	1678603322.626889	0.000000
0.000000	544.000000	130140.000000	0.000000	1678603322.642138	0.000000
0.000000	544.000000	130213.000000	0.000000	1678603322.657387	0.000000
0.000000	542.000000	130173.000000	0.000000	1678603322.672636	0.000000
0.000000	544.000000	130162.000000	0.000000	1678603322.687885	0.000000
0.000000	544.000000	130205.000000	0.000000	1678603322.703134	0.000000
0.000000	544.000000	130212.000000	0.000000	1678603322.722861	0.000000
0.000000	544.000000	130230.000000	0.000000	1678603322.742588	0.000000
0.000000	544.000000	130229.000000	0.000000	1678603322.762315	0.000000
0.000000	545.000000	130230.000000	0.000000	1678603322.782042	0.000000
0.000000	544.000000	130241.000000	0.000000	1678603322.801769	0.000000
0.000000	544.000000	130231.000000	0.000000	1678603322.821495	0.000000
0.000000	545.000000	130282.000000	0.000000	1678603322.833574	0.000000
0.000000	545.000000	130242.000000	0.000000	1678603322.845652	0.000000
0.000000	544.000000	130241.000000	0.000000	1678603322.857730	0.000000
0.000000	545.000000	130296.000000	0.000000	1678603322.869809	0.000000
0.000000	544.000000	130268.000000	0.000000	1678603322.881887	0.000000
0.000000	545.000000	130276.000000	0.000000	1678603322.893965	0.000000
0.000000	543.000000	130314.000000	0.000000	1678603322.909398	0.000000
0.000000	544.000000	130328.000000	0.000000	1678603322.924830	0.000000
0.000000	544.000000	130346.000000	0.000000	1678603322.940263	0.000000
0.000000	544.000000	130321.000000	0.000000	1678603322.955695	0.000000
0.000000	543.000000	130336.000000	0.000000	1678603322.971127	0.000000
0.000000	544.000000	130342.000000	0.000000	1678603322.986560	0.000000
0.000000	544.000000	130407.000000	0.000000	1678603323.001739	0.000000
0.000000	543.000000	130401.000000	0.000000	1678603323.016917	0.000000
0.000000	544.000000	130373.000000	0.000000	1678603323.032096	0.000000
0.000000	543.000000	130411.000000	0.000000	1678603323.047275	0.000000
0.000000	544.000000	130415.000000	0.000000	1678603323.062454	0.000000
0.000000	545.000000	130401.000000	0.000000	1678603323.077632	0.000000
0.000000	545.000000	130461.000000	0.000000	1678603323.092768	0.000000
0.000000	544.000000	130429.000000	0.000000	1678603323.107904	0.000000
0.000000	543.000000	130449.000000	0.000000	1678603323.123039	0.000000
0.000000	545.000000	130482.000000	0.000000	1678603323.138175	0.000000
0.000000	543.000000	130430.000000	0.000000	1678603323.153311	0.000000
0.000000	545.000000	130480.000000	0.000000	1678603323.168446	0.000000
0.000000	544.000000	130494.000000	0.000000	1678603323.188414	0.000000
0.000000	544.000000	130510.000000	0.000000	1678603323.208381	0.000000
0.000000	544.000000	130483.000000	0.000000	1678603323.228349	0.000000
0.000000	544.000000	130513.000000	0.000000	1678603323.248317	0.000000
0.000000	543.000000	130461.000000	0.000000	1678603323.268285	0.000000
0.000000	544.000000	130445.000000	0.000000	1678603323.288252	0.000000
0.000000	545.000000	130493.000000	0.000000	1678603323.300459	0.000000
0.000000	543.000000	130495.000000	0.000000	1678603323.312666	0.000000
0.000000	544.000000	130511.000000	0.000000	1678603323.324872	0.000000
0.000000	543.000000	130455.000000	0.000000	1678603323.337079	0.000000
0.000000	543.000000	130432.000000	0.000000	1678603323.349286	0.000000
0.000000	543.000000	130450.000000	0.000000	1678603323.361493	0.000000
0.000000	544.000000	130470.000000	0.000000	1678603323.379103	0.000000
0.000000	543.000000	130438.000000	0.000000	1678603323.396714	0.000000
0.000000	544.000000	130447.000000	0.000000	1678603323.414325	0.000000
0.000000	544.000000	130391.000000	0.000000	1678603323.431936	0.000000
0.000000	543.000000	130427.000000	0.000000	1678603323.449547	0.000000
0.000000	544.000000	130431.000000	0.000000	1678603323.467158	0.000000
0.000000	544.000000	130440.000000	0.000000	1678603323.482026	0.000000
0.000000	544.000000	130453.000000	0.000000	1678603323.496895	0.000000
0.000000	543.000000	130429.000000	0.000000	1678603323.511763	0.000000
0.000000	544.000000	130467.000000	0.000000	1678603323.526631	0.000000
0.000000	544.000000	130447.000000	0.000000	1678603323.541500	0.000000
0.000000	544.000000	130417.000000	0.000000	1678603323.556368	0.000000
0.000000	544.000000	130458.000000	0.000000	1678603323.574058	0.000000
0.000000	543.000000	130501.000000	0.000000	1678603323.591748	0.000000
0.000000	544.000000	130456.000000	0.000000	1678603323.609439	0.000000
0.000000	543.000000	130470.000000	0.000000	1678603323.627129	0.000000
0.000000	543.000000	130475.000000	0.000000	1678603323.644819	0.000000
0.000000	543.000000	130484.000000	0.000000	1678603323.662509	0.000000
0.000000	544.000000	130517.000000	0.000000	1678603323.675252	0.000000
0.000000	543.000000	130510.000000	0.000000	1678603323.687995	0.000000
0.000000	542.000000	130552.000000	0.000000	1678603323.700738	0.000000
0.000000	545.000000	130525.000000	0.000000	1678603323.713481	0.000000
0.000000	543.000000	130547.000000	0.000000	1678603323.726224	0.000000
0.000000	544.000000	130561.000000	0.000000	1678603323.738967	0.000000
0.000000	544.000000	130558.000000	0.000000	1678603323.756229	0.000000
0.000000	544.000000	130559.000000	0.000000	1678603323.773491	0.000000
0.000000	544.000000	130586.000000	0.000000	1678603323.790754	0.000000
0.000000	543.000000	130579.000000	0.000000	1678603323.808016	0.000000
0.000000	544.000000	130590.000000	0.000000	1678603323.825278	0.000000
0.000000	544.000000	130622.000000	0.000000	1678603323.842541	0.000000
0.000000	543.000000	130642.000000	0.000000	1678603323.855143	0.000000
0.000000	544.000000	130619.000000	0.000000	1678603323.867746	0.000000
0.000000	543.000000	130610.000000	0.000000	1678603323.880349	0.000000
0.000000	545.000000	130610.000000	0.000000	1678603323.892951	0.000000
0.000000	545.000000	130661.000000	0.000000	1678603323.905554	0.000000
0.000000	543.000000	130634.000000	0.000000	1678603323.918157	0.000000
0.000000	544.000000	130654.000000	0.000000	1678603323.935159	0.000000
0.000000	543.000000	130652.000000	0.000000	1678603323.952162	0.000000
0.000000	543.000000	130670.000000	0.000000	1678603323.969164	0.000000
0.000000	543.000000	130689.000000	0.000000	1678603323.986166	0.000000
0.000000	543.000000	130666.000000	0.000000	1678603324.003168	0.000000
0.000000	543.000000	130600.000000	0.000000	1678603324.020170	0.000000
0.000000	542.000000	130670.000000	0.000000	1678603324.035413	0.000000
0.000000	542.000000	130641.000000	0.000000	1678603324.050655	0.000000
0.000000	544.000000	130695.000000	0.000000	1678603324.065898	0.000000
0.000000	544.000000	130709.000000	0.000000	1678603324.081140	0.000000
0.000000	545.000000	130762.000000	0.000000	1678603324.096383	0.000000
0.000000	544.000000	130725.000000	0.000000	1678603324.111625	0.000000
0.000000	545.000000	130752.000000	0.000000	1678603324.129462	0.000000
0.000000	544.000000	130744.000000	0.000000	1678603324.147299	0.000000
0.000000	545.000000	130771.000000	0.000000	1678603324.165135	0.000000
0.000000	545.000000	130795.000000	0.000000	1678603324.182972	0.000000
0.000000	545.000000	130769.000000	0.000000	1678603324.200809	0.000000
0.000000	545.000000	130792.000000	0.000000	1678603324.218646	0.000000
0.000000	546.000000	130746.000000	0.000000	1678603324.230931	0.000000
0.000000	546.000000	130758.000000	0.000000	1678603324.243216	0.000000
0.000000	544.000000	130706.000000	0.000000	1678603324.255502	0.000000
0.000000	544.000000	130765.000000	0.000000	1678603324.267787	0.000000
0.000000	545.000000	130747.000000	0.000000	1678603324.280072	0.000000
0.000000	544.000000	130637.000000	0.000000	1678603324.292357	0.000000
0.000000	544.000000	130690.000000	0.000000	1678603324.309859	0.000000
0.000000	543.000000	130738.000000	0.000000	1678603324.327361	0.000000
0.000000	544.000000	130659.000000	0.000000	1678603324.344862	0.000000
0.000000	544.000000	130701.000000	0.000000	1678603324.362364	0.000000
0.000000	544.000000	130688.000000	0.000000	1678603324.379866	0.000000
0.000000	544.000000	130635.000000	0.000000	1678603324.397367	0.000000
0.000000	544.000000	130607.000000	0.000000	1678603324.412272	0.000000
0.000000	543.000000	130627.000000	0.000000	1678603324.427177	0.000000
0.000000	545.000000	130631.000000	0.000000	1678603324.442082	0.000000
0.000000	545.000000	130655.000000	0.000000	1678603324.456986	0.000000
0.000000	544.000000	130625.000000	0.000000	1678603324.471891	0.000000
0.000000	544.000000	130636.000000	0.000000	1678603324.486796	0.000000
0.000000	545.000000	130646.000000	0.000000	1678603324.501906	0.000000
0.000000	546.000000	130620.000000	0.000000	1678603324.517016	0.000000
0.000000	545.000000	130627.000000	0.000000	1678603324.532125	0.000000
0.000000	545.000000	130668.000000	0.000000	1678603324.547235	0.000000
0.000000	545.000000	130647.000000	0.000000	1678603324.562345	0.000000
0.000000	544.000000	130639.000000	0.000000	1678603324.577455	0.000000
0.000000	545.000000	130673.000000	0.000000	1678603324.592776	0.000000
0.000000	542.000000	130644.000000	0.000000	1678603324.608098	0.000000
0.000000	544.000000	130691.000000	0.000000	1678603324.623419	0.000000
0.000000	543.000000	130640.000000	0.000000	1678603324.638740	0.000000
0.000000	545.000000	130673.000000	0.000000	1678603324.654061	0.000000
0.000000	544.000000	130672.000000	0.000000	1678603324.669382	0.000000
0.000000	543.000000	130665.000000	0.000000	1678603324.686548	0.000000
0.000000	545.000000	130629.000000	0.000000	1678603324.703714	0.000000
0.000000	545.000000	130644.000000	0.000000	1678603324.720879	0.000000
0.000000	543.000000	130712.000000	0.000000	1678603324.738045	0.000000
0.000000	544.000000	130709.000000	0.000000	1678603324.755211	0.000000
0.000000	545.000000	130651.000000	0.000000	1678603324.772376	0.000000
0.000000	545.000000	130700.000000	0.000000	1678603324.787311	0.000000
0.000000	544.000000	130720.000000	0.000000	1678603324.802245	0.000000
0.000000	545.000000	130718.000000	0.000000	1678603324.817180	0.000000
0.000000	543.000000	130713.000000	0.000000	1678603324.832114	0.000000
0.000000	544.000000	130716.000000	0.000000	1678603324.847049	0.000000
0.000000	545.000000	130725.000000	0.000000	1678603324.861983	0.000000
0.000000	545.000000	130737.000000	0.000000	1678603324.877046	0.000000
0.000000	544.000000	130721.000000	0.000000	1678603324.892109	0.000000
0.000000	544.000000	130734.000000	0.000000	1678603324.907172	0.000000
0.000000	546.000000	130722.000000	0.000000	1678603324.922234	0.000000
0.000000	544.000000	130770.000000	0.000000	1678603324.937297	0.000000
0.000000	544.000000	130764.000000	0.000000	1678603324.952360	0.000000
0.000000	544.000000	130785.000000	0.000000	1678603324.967523	0.000000
0.000000	544.000000	130736.000000	0.000000	1678603324.982687	0.000000
0.000000	544.000000	130774.000000	0.000000	1678603324.997850	0.000000
0.000000	543.000000	130779.000000	0.000000	1678603325.013013	0.000000
0.000000	544.000000	130752.000000	0.000000	1678603325.028177	0.000000
0.000000	544.000000	130772.000000	0.000000	1678603325.043340	0.000000
0.000000	545.000000	130825.000000	0.000000	1678603325.058392	0.000000
0.000000	544.000000	130795.000000	0.000000	1678603325.073444	0.000000
0.000000	544.000000	130769.000000	0.000000	1678603325.088497	0.000000
0.000000	544.000000	130828.000000	0.000000	1678603325.103549	0.000000
0.000000	543.000000	130816.000000	0.000000	1678603325.118601	0.000000
0.000000	544.000000	130787.000000	0.000000	1678603325.133653	0.000000
0.000000	545.000000	130807.000000	0.000000	1678603325.153634	0.000000
0.000000	545.000000	130826.000000	0.000000	1678603325.173615	0.000000
0.000000	545.000000	130798.000000	0.000000	1678603325.193595	0.000000
0.000000	545.000000	130807.000000	0.000000	1678603325.213576	0.000000
0.000000	546.000000	130780.000000	0.000000	1678603325.233557	0.000000
0.000000	544.000000	130766.000000	0.000000	1678603325.253538	0.000000
0.000000	544.000000	130747.000000	0.000000	1678603325.266068	0.000000
0.000000	544.000000	130756.000000	0.000000	1678603325.278598	0.000000
0.000000	544.000000	130746.000000	0.000000	1678603325.291128	0.000000
0.000000	545.000000	130685.000000	0.000000	1678603325.303658	0.000000
0.000000	544.000000	130676.000000	0.000000	1678603325.316189	0.000000
0.000000	544.000000	130621.000000	0.000000	1678603325.328719	0.000000
0.000000	544.000000	130618.000000	0.000000	1678603325.343670	0.000000
0.000000	542.000000	130614.000000	0.000000	1678603325.358621	0.000000
0.000000	544.000000	130570.000000	0.000000	1678603325.373572	0.000000
0.000000	544.000000	130557.000000	0.000000	1678603325.388523	0.000000
0.000000	544.000000	130562.000000	0.000000	1678603325.403473	0.000000
0.000000	544.000000	130529.000000	0.000000	1678603325.418424	0.000000
0.000000	543.000000	130577.000000	0.000000	1678603325.433708	0.000000
0.000000	544.000000	130523.000000	0.000000	1678603325.448992	0.000000
0.000000	544.000000	130533.000000	0.000000	1678603325.464276	0.000000
0.000000	544.000000	130484.000000	0.000000	1678603325.479560	0.000000
0.000000	542.000000	130493.000000	0.000000	1678603325.494844	0.000000
0.000000	543.000000	130468.000000	0.000000	1678603325.510128	0.000000
0.000000	545.000000	130495.000000	0.000000	1678603325.529111	0.000000
0.000000	542.000000	130472.000000	0.000000	1678603325.548094	0.000000
0.000000	544.000000	130425.000000	0.000000	1678603325.567078	0.000000
0.000000	543.000000	130472.000000	0.000000	1678603325.586061	0.000000
0.000000	544.000000	130432.000000	0.000000	1678603325.605044	0.000000
0.000000	543.000000	130476.000000	0.000000	1678603325.624027	0.000000
0.000000	543.000000	130482.000000	0.000000	1678603325.637147	0.000000
0.000000	544.000000	130475.000000	0.000000	1678603325.650267	0.000000
0.000000	543.000000	130448.000000	0.000000	1678603325.663386	0.000000
0.000000	544.000000	130463.000000	0.000000	1678603325.676506	0.000000
0.000000	544.000000	130444.000000	0.000000	1678603325.689625	0.000000
0.000000	545.000000	130401.000000	0.000000	1678603325.702745	0.000000
0.000000	544.000000	130410.000000	0.000000	1678603325.717712	0.000000
0.000000	543.000000	130428.000000	0.000000	1678603325.732680	0.000000
0.000000	545.000000	130459.000000	0.000000	1678603325.747648	0.000000
0.000000	544.000000	130474.000000	0.000000	1678603325.762615	0.000000
0.000000	543.000000	130453.000000	0.000000	1678603325.777583	0.000000
0.000000	545.000000	130450.000000	0.000000	1678603325.792550	0.000000
0.000000	544.000000	130451.000000	0.000000	1678603325.809703	0.000000
0.000000	544.000000	130451.000000	0.000000	1678603325.826857	0.000000
0.000000	543.000000	130468.000000	0.000000	1678603325.844010	0.000000
0.000000	545.000000	130410.000000	0.000000	1678603325.861163	0.000000
0.000000	544.000000	130458.000000	0.000000	1678603325.878316	0.000000
0.000000	545.000000	130429.000000	0.000000	1678603325.895469	0.000000
0.000000	545.000000	130468.000000	0.000000	1678603325.910670	0.000000
0.000000	546.000000	130438.000000	0.000000	1678603325.925871	0.000000
0.000000	544.000000	130479.000000	0.000000	1678603325.941072	0.000000
0.000000	545.000000	130470.000000	0.000000	1678603325.956273	0.000000
0.000000	546.000000	130468.000000	0.000000	1678603325.971474	0.000000
0.000000	544.000000	130525.000000	0.000000	1678603325.986676	0.000000
0.000000	545.000000	130477.000000	0.000000	1678603326.001823	0.000000
0.000000	545.000000	130496.000000	0.000000	1678603326.016971	0.000000
0.000000	545.000000	130515.000000	0.000000	1678603326.032119	0.000000
0.000000	545.000000	130501.000000	0.000000	1678603326.047266	0.000000
0.000000	545.000000	130529.000000	0.000000	1678603326.062414	0.000000
0.000000	544.000000	130555.000000	0.000000	1678603326.077562	0.000000
0.000000	544.000000	130511.000000	0.000000	1678603326.092784	0.000000
0.000000	544.000000	130489.000000	0.000000	1678603326.108006	0.000000
0.000000	545.000000	130551.000000	0.000000	1678603326.123228	0.000000
0.000000	545.000000	130517.000000	0.000000	1678603326.138449	0.000000
0.000000	544.000000	130554.000000	0.000000	1678603326.153671	0.000000
0.000000	544.000000	130533.000000	0.000000	1678603326.168893	0.000000
0.000000	545.000000	130469.000000	0.000000	1678603326.185571	0.000000
0.000000	544.000000	130479.000000	0.000000	1678603326.202250	0.000000
0.000000	546.000000	130435.000000	0.000000	1678603326.218928	0.000000
0.000000	545.000000	130402.000000	0.000000	1678603326.235606	0.000000
0.000000	544.000000	130396.000000	0.000000	1678603326.252285	0.000000
0.000000	544.000000	130378.000000	0.000000	1678603326.268963	0.000000
0.000000	545.000000	130322.000000	0.000000	1678603326.284774	0.000000
0.000000	546.000000	130294.000000	0.000000	1678603326.300586	0.000000
0.000000	544.000000	130301.000000	0.000000	1678603326.316397	0.000000
0.000000	545.000000	130301.000000	0.000000	1678603326.332208	0.000000
0.000000	544.000000	130270.000000	0.000000	1678603326.348019	0.000000
0.000000	544.000000	130239.000000	0.000000	1678603326.363830	0.000000
0.000000	545.000000	130202.000000	0.000000	1678603326.381135	0.000000
0.000000	543.000000	130165.000000	0.000000	1678603326.398439	0.000000
0.000000	545.000000	130175.000000	0.000000	1678603326.415743	0.000000
0.000000	544.000000	130165.000000	0.000000	1678603326.433047	0.000000
0.000000	545.000000	130162.000000	0.000000	1678603326.450352	0.000000
0.000000	545.000000	130172.000000	0.000000	1678603326.467656	0.000000
0.000000	546.000000	130145.000000	0.000000	1678603326.480317	0.000000
0.000000	543.000000	130098.000000	0.000000	1678603326.492977	0.000000
0.000000	544.000000	130110.000000	0.000000	1678603326.505638	0.000000
0.000000	544.000000	130121.000000	0.000000	1678603326.518299	0.000000
0.000000	543.000000	130107.000000	0.000000	1678603326.530959	0.000000
0.000000	544.000000	130109.000000	0.000000	1678603326.543620	0.000000
0.000000	545.000000	130113.000000	0.000000	1678603326.562876	0.000000
0.000000	544.000000	130081.000000	0.000000	1678603326.582132	0.000000
0.000000	545.000000	130119.000000	0.000000	1678603326.601388	0.000000
0.000000	544.000000	130083.000000	0.000000	1678603326.620644	0.000000
0.000000	545.000000	130054.000000	0.000000	1678603326.639900	0.000000
0.000000	544.000000	130075.000000	0.000000	1678603326.659156	0.000000
0.000000	545.000000	130088.000000	0.000000	1678603326.672242	0.000000
0.000000	545.000000	130110.000000	0.000000	1678603326.685329	0.000000
0.000000	545.000000	130119.000000	0.000000	1678603326.698415	0.000000
0.000000	545.000000	130048.000000	0.000000	1678603326.711502	0.000000
0.000000	546.000000	130060.000000	0.000000	1678603326.724588	0.000000
0.000000	545.000000	130115.000000	0.000000	1678603326.737675	0.000000
0.000000	543.000000	130047.000000	0.000000	1678603326.752716	0.000000
0.000000	543.000000	130082.000000	0.000000	1678603326.767758	0.000000
0.000000	544.000000	130084.000000	0.000000	1678603326.782799	0.000000
0.000000	545.000000	130076.000000	0.000000	1678603326.797841	0.000000
0.000000	543.000000	130107.000000	0.000000	1678603326.812882	0.000000
0.000000	544.000000	130093.000000	0.000000	1678603326.827924	0.000000
0.000000	544.000000	130078.000000	0.000000	1678603326.842855	0.000000
0.000000	544.000000	130087.000000	0.000000	1678603326.857786	0.000000
0.000000	543.000000	130117.000000	0.000000	1678603326.872717	0.000000
0.000000	544.000000	130107.000000	0.000000	1678603326.887648	0.000000
0.000000	544.000000	130081.000000	0.000000	1678603326.902579	0.000000
0.000000	544.000000	130124.000000	0.000000	1678603326.917511	0.000000
0.000000	546.000000	130124.000000	0.000000	1678603326.934653	0.000000
0.000000	544.000000	130118.000000	0.000000	1678603326.951795	0.000000
0.000000	543.000000	130125.000000	0.000000	1678603326.968937	0.000000
0.000000	544.000000	130092.000000	0.000000	1678603326.986079	0.000000
0.000000	545.000000	130152.000000	0.000000	1678603327.003222	0.000000
0.000000	546.000000	130136.000000	0.000000	1678603327.020364	0.000000
0.000000	544.000000	130209.000000	0.000000	1678603327.035778	0.000000
0.000000	544.000000	130184.000000	0.000000	1678603327.051191	0.000000
0.000000	545.000000	130164.000000	0.000000	1678603327.066604	0.000000
0.000000	543.000000	130224.000000	0.000000	1678603327.082018	0.000000
0.000000	544.000000	130163.000000	0.000000	1678603327.097431	0.000000
0.000000	543.000000	130198.000000	0.000000	1678603327.112844	0.000000
0.000000	544.000000	130159.000000	0.000000	1678603327.127900	0.000000
0.000000	543.000000	130200.000000	0.000000	1678603327.142955	0.000000
0.000000	545.000000	130148.000000	0.000000	1678603327.158010	0.000000
0.000000	546.000000	130126.000000	0.000000	1678603327.173065	0.000000
0.000000	544.000000	130112.000000	0.000000	1678603327.188120	0.000000
0.000000	544.000000	130109.000000	0.000000	1678603327.203176	0.000000
0.000000	543.000000	130095.000000	0.000000	1678603327.218172	0.000000
0.000000	544.000000	130043.000000	0.000000	1678603327.233168	0.000000
0.000000	543.000000	130049.000000	0.000000	1678603327.248164	0.000000
0.000000	545.000000	130026.000000	0.000000	1678603327.263160	0.000000
0.000000	543.000000	129999.000000	0.000000	1678603327.278157	0.000000
0.000000	544.000000	130014.000000	0.000000	1678603327.293153	0.000000
0.000000	545.000000	129983.000000	0.000000	1678603327.310122	0.000000
0.000000	545.000000	129932.000000	0.000000	1678603327.327090	0.000000
0.000000	544.000000	129908.000000	0.000000	1678603327.344059	0.000000
0.000000	545.000000	129899.000000	0.000000	1678603327.361028	0.000000
0.000000	544.000000	129953.000000	0.000000	1678603327.377996	0.000000
0.000000	544.000000	129884.000000	0.000000	1678603327.394965	0.000000
0.000000	543.000000	129890.000000	0.000000	1678603327.410262	0.000000
0.000000	544.000000	129917.000000	0.000000	1678603327.425559	0.000000
0.000000	543.000000	129894.000000	0.000000	1678603327.440856	0.000000
0.000000	543.000000	129912.000000	0.000000	1678603327.456153	0.000000
0.000000	543.000000	129864.000000	0.000000	1678603327.471449	0.000000
0.000000	543.000000	129858.000000	0.000000	1678603327.486746	0.000000
0.000000	543.000000	129856.000000	0.000000	1678603327.501887	0.000000
0.000000	544.000000	129857.000000	0.000000	1678603327.517028	0.000000
0.000000	543.000000	129853.000000	0.000000	1678603327.532168	0.000000
0.000000	543.000000	129833.000000	0.000000	1678603327.547309	0.000000
0.000000	544.000000	129848.000000	0.000000	1678603327.562450	0.000000
0.000000	544.000000	129889.000000	0.000000	1678603327.577591	0.000000
0.000000	545.000000	129908.000000	0.000000	1678603327.592647	0.000000
0.000000	545.000000	129906.000000	0.000000	1678603327.607703	0.000000
0.000000	545.000000	129873.000000	0.000000	1678603327.622759	0.000000
0.000000	545.000000	129889.000000	0.000000	1678603327.637815	0.000000
0.000000	544.000000	129842.000000	0.000000	1678603327.652872	0.000000
0.000000	545.000000	129886.000000	0.000000	1678603327.667928	0.000000
0.000000	546.000000	129902.000000	0.000000	1678603327.683080	0.000000
0.000000	544.000000	129898.000000	0.000000	1678603327.698232	0.000000
0.000000	545.000000	129919.000000	0.000000	1678603327.713385	0.000000
0.000000	544.000000	129950.000000	0.000000	1678603327.728537	0.000000
0.000000	544.000000	129928.000000	0.000000	1678603327.743690	0.000000
0.000000	545.000000	129886.000000	0.000000	1678603327.758842	0.000000
0.000000	544.000000	129951.000000	0.000000	1678603327.776012	0.000000
0.000000	545.000000	129948.000000	0.000000	1678603327.793181	0.000000
0.000000	545.000000	129899.000000	0.000000	1678603327.810351	0.000000
0.000000	546.000000	129947.000000	0.000000	1678603327.827521	0.000000
0.000000	543.000000	129947.000000	0.000000	1678603327.844691	0.000000
0.000000	544.000000	130001.000000	0.000000	1678603327.861861	0.000000
0.000000	545.000000	129972.000000	0.000000	1678603327.879354	0.000000
0.000000	544.000000	129968.000000	0.000000	1678603327.896848	0.000000
0.000000	544.000000	130020.000000	0.000000	1678603327.914342	0.000000
0.000000	546.000000	130026.000000	0.000000	1678603327.931836	0.000000
0.000000	543.000000	130052.000000	0.000000	1678603327.949330	0.000000
0.000000	546.000000	130046.000000	0.000000	1678603327.966824	0.000000
0.000000	545.000000	130046.000000	0.000000	1678603327.979918	0.000000
0.000000	545.000000	130012.000000	0.000000	1678603327.993011	0.000000
0.000000	545.000000	130072.000000	0.000000	1678603328.006104	0.000000
0.000000	545.000000	130128.000000	0.000000	1678603328.019198	0.000000
0.000000	545.000000	130117.000000	0.000000	1678603328.032291	0.000000
0.000000	546.000000	130136.000000	0.000000	1678603328.045385	0.000000
0.000000	545.000000	130154.000000	0.000000	1678603328.062070	0.000000
0.000000	544.000000	130118.000000	0.000000	1678603328.078756	0.000000
0.000000	547.000000	130165.000000	0.000000	1678603328.095441	0.000000
0.000000	545.000000	130180.000000	0.000000	1678603328.112127	0.000000
0.000000	544.000000	130089.000000	0.000000	1678603328.128813	0.000000
0.000000	546.000000	130112.000000	0.000000	1678603328.145498	0.000000
0.000000	544.000000	130149.000000	0.000000	1678603328.163785	0.000000
0.000000	543.000000	130116.000000	0.000000	1678603328.182073	0.000000
0.000000	544.000000	130081.000000	0.000000	1678603328.200361	0.000000
0.000000	544.000000	130096.000000	0.000000	1678603328.218648	0.000000
0.000000	545.000000	130046.000000	0.000000	1678603328.236936	0.000000
0.000000	543.000000	130034.000000	0.000000	1678603328.255223	0.000000
0.000000	544.000000	130066.000000	0.000000	1678603328.267246	0.000000
0.000000	545.000000	130038.000000	0.000000	1678603328.279268	0.000000
0.000000	543.000000	130008.000000	0.000000	1678603328.291291	0.000000
0.000000	543.000000	129968.000000	0.000000	1678603328.303313	0.000000
0.000000	543.000000	129941.000000	0.000000	1678603328.315336	0.000000
0.000000	544.000000	129972.000000	0.000000	1678603328.327358	0.000000
0.000000	545.000000	130012.000000	0.000000	1678603328.342477	0.000000
0.000000	544.000000	129997.000000	0.000000	1678603328.357595	0.000000
0.000000	544.000000	129965.000000	0.000000	1678603328.372714	0.000000
0.000000	545.000000	130013.000000	0.000000	1678603328.387833	0.000000
0.000000	545.000000	129950.000000	0.000000	1678603328.402952	0.000000
0.000000	543.000000	129997.000000	0.000000	1678603328.418070	0.000000
0.000000	543.000000	129993.000000	0.000000	1678603328.435656	0.000000
0.000000	544.000000	130008.000000	0.000000	1678603328.453242	0.000000
0.000000	545.000000	129990.000000	0.000000	1678603328.470827	0.000000
0.000000	544.000000	129999.000000	0.000000	1678603328.488413	0.000000
0.000000	545.000000	130000.000000	0.000000	1678603328.505998	0.000000
0.000000	543.000000	130004.000000	0.000000	1678603328.523584	0.000000
0.000000	545.000000	129980.000000	0.000000	1678603328.538503	0.000000
0.000000	543.000000	130020.000000	0.000000	1678603328.553422	0.000000
0.000000	545.000000	130042.000000	0.000000	1678603328.568341	0.000000
0.000000	544.000000	130030.000000	0.000000	1678603328.583260	0.000000
0.000000	544.000000	130056.000000	0.000000	1678603328.598179	0.000000
0.000000	544.000000	130067.000000	0.000000	1678603328.613098	0.000000
0.000000	545.000000	130109.000000	0.000000	1678603328.628211	0.000000
0.000000	545.000000	130047.000000	0.000000	1678603328.643324	0.000000
0.000000	545.000000	130052.000000	0.000000	1678603328.658437	0.000000
0.000000	546.000000	130089.000000	0.000000	1678603328.673549	0.000000
0.000000	543.000000	130097.000000	0.000000	1678603328.688662	0.000000
0.000000	545.000000	130059.000000	0.000000	1678603328.703775	0.000000
0.000000	547.000000	130118.000000	0.000000	1678603328.718549	0.000000
0.000000	546.000000	130136.000000	0.000000	1678603328.733323	0.000000
0.000000	544.000000	130160.000000	0.000000	1678603328.748096	0.000000
0.000000	545.000000	130163.000000	0.000000	1678603328.762870	0.000000
0.000000	544.000000	130183.000000	0.000000	1678603328.777644	0.000000
0.000000	546.000000	130221.000000	0.000000	1678603328.792418	0.000000
0.000000	545.000000	130197.000000	0.000000	1678603328.809286	0.000000
0.000000	544.000000	130249.000000	0.000000	1678603328.826154	0.000000
0.000000	544.000000	130254.000000	0.000000	1678603328.843022	0.000000
0.000000	544.000000	130290.000000	0.000000	1678603328.859890	0.000000
0.000000	544.000000	130307.000000	0.000000	1678603328.876758	0.000000
0.000000	545.000000	130352.000000	0.000000	1678603328.893626	0.000000
0.000000	545.000000	130321.000000	0.000000	1678603328.911429	0.000000
0.000000	544.000000	130328.000000	0.000000	1678603328.929232	0.000000
0.000000	543.000000	130343.000000	0.000000	1678603328.947035	0.000000
0.000000	543.000000	130344.000000	0.000000	1678603328.964838	0.000000
0.000000	546.000000	130398.000000	0.000000	1678603328.982641	0.000000
0.000000	544.000000	130453.000000	0.000000	1678603329.000443	0.000000
0.000000	544.000000	130473.000000	0.000000	1678603329.015455	0.000000
0.000000	545.000000	130438.000000	0.000000	1678603329.030468	0.000000
0.000000	544.000000	130505.000000	0.000000	1678603329.045480	0.000000
0.000000	544.000000	130541.000000	0.000000	1678603329.060493	0.000000
0.000000	544.000000	130615.000000	0.000000	1678603329.075505	0.000000
0.000000	546.000000	130560.000000	0.000000	1678603329.090517	0.000000
0.000000	547.000000	130698.000000	0.000000	1678603329.103477	0.000000
0.000000	548.000000	130729.000000	0.000000	1678603329.116436	0.000000
0.000000	547.000000	130734.000000	0.000000	1678603329.129395	0.000000
0.000000	548.000000	130798.000000	0.000000	1678603329.142355	0.000000
0.000000	548.000000	130819.000000	0.000000	1678603329.155314	0.000000
0.000000	546.000000	130930.000000	0.000000	1678603329.168274	0.000000
0.000000	544.000000	131081.000000	0.000000	1678603329.185315	0.000000
0.000000	543.000000	131159.000000	0.000000	1678603329.202356	0.000000
0.000000	541.000000	131259.000000	0.000000	1678603329.219398	0.000000
0.000000	541.000000	131430.000000	0.000000	1678603329.236439	0.000000
0.000000	539.000000	131704.000000	0.000000	1678603329.253480	0.000000
0.000000	537.000000	131995.000000	0.000000	1678603329.270521	0.000000
0.000000	535.000000	132166.000000	0.000000	1678603329.285723	0.000000
0.000000	535.000000	132380.000000	0.000000	1678603329.300924	0.000000
0.000000	534.000000	132626.000000	0.000000	1678603329.316126	0.000000
0.000000	534.000000	132888.000000	0.000000	1678603329.331327	0.000000
0.000000	534.000000	133328.000000	0.000000	1678603329.346529	0.000000
0.000000	533.000000	133627.000000	0.000000	1678603329.361730	0.000000
0.000000	533.000000	133739.000000	0.000000	1678603329.377177	0.000000
0.000000	534.000000	133997.000000	0.000000	1678603329.392623	0.000000
0.000000	532.000000	134179.000000	0.000000	1678603329.408069	0.000000
0.000000	533.000000	134341.000000	0.000000	1678603329.423516	0.000000
0.000000	533.000000	134554.000000	0.000000	1678603329.438962	0.000000
0.000000	532.000000	134683.000000	0.000000	1678603329.454408	0.000000
0.000000	533.000000	134805.000000	0.000000	1678603329.469285	0.000000
0.000000	532.000000	134962.000000	0.000000	1678603329.484163	0.000000
0.000000	532.000000	135162.000000	0.000000	1678603329.499040	0.000000
0.000000	532.000000	135359.000000	0.000000	1678603329.513917	0.000000
0.000000	531.000000	135527.000000	0.000000	1678603329.528795	0.000000
0.000000	531.000000	135724.000000	0.000000	1678603329.543672	0.000000
0.000000	533.000000	135845.000000	0.000000	1678603329.560574	0.000000
0.000000	532.000000	136051.000000	0.000000	1678603329.577475	0.000000
0.000000	532.000000	136196.000000	0.000000	1678603329.594376	0.000000
0.000000	532.000000	136209.000000	0.000000	1678603329.611278	0.000000
0.000000	534.000000	136228.000000	0.000000	1678603329.628179	0.000000
0.000000	535.000000	136194.000000	0.000000	1678603329.645080	0.000000
0.000000	534.000000	136192.000000	0.000000	1678603329.660443	0.000000
0.000000	534.000000	136193.000000	0.000000	1678603329.675806	0.000000
0.000000	534.000000	136261.000000	0.000000	1678603329.691169	0.000000
0.000000	535.000000	136231.000000	0.000000	1678603329.706531	0.000000
0.000000	535.000000	136243.000000	0.000000	1678603329.721894	0.000000
0.000000	535.000000	136259.000000	0.000000	1678603329.737257	0.000000
0.000000	535.000000	136301.000000	0.000000	1678603329.754819	0.000000
0.000000	535.000000	136298.000000	0.000000	1678603329.772382	0.000000
0.000000	534.000000	136327.000000	0.000000	1678603329.789944	0.000000
0.000000	535.000000	136311.000000	0.000000	1678603329.807506	0.000000
0.000000	535.000000	136363.000000	0.000000	1678603329.825068	0.000000
0.000000	534.000000	136342.000000	0.000000	1678603329.842631	0.000000
0.000000	534.000000	136389.000000	0.000000	1678603329.855306	0.000000
0.000000	534.000000	136368.000000	0.000000	1678603329.867981	0.000000
0.000000	533.000000	136344.000000	0.000000	1678603329.880656	0.000000
0.000000	532.000000	136395.000000	0.000000	1678603329.893332	0.000000
0.000000	533.000000	136375.000000	0.000000	1678603329.906007	0.000000
0.000000	532.000000	136413.000000	0.000000	1678603329.918682	0.000000
0.000000	531.000000	136404.000000	0.000000	1678603329.935521	0.000000
0.000000	531.000000	136413.000000	0.000000	1678603329.952359	0.000000
0.000000	529.000000	136396.000000	0.000000	1678603329.969198	0.000000
0.000000	528.000000	136441.000000	0.000000	1678603329.986037	0.000000
0.000000	529.000000	136415.000000	0.000000	1678603330.002875	0.000000
0.000000	528.000000	136424.000000	0.000000	1678603330.019714	0.000000
0.000000	527.000000	136457.000000	0.000000	1678603330.037327	0.000000
0.000000	527.000000	136366.000000	0.000000	1678603330.054941	0.000000
0.000000	526.000000	136402.000000	0.000000	1678603330.072554	0.000000
0.000000	526.000000	136382.000000	0.000000	1678603330.090167	0.000000
0.000000	526.000000	136368.000000	0.000000	1678603330.107780	0.000000
0.000000	526.000000	136389.000000	0.000000	1678603330.125394	0.000000
0.000000	525.000000	136384.000000	0.000000	1678603330.138675	0.000000
0.000000	524.000000	136408.000000	0.000000	1678603330.151956	0.000000
0.000000	525.000000	136402.000000	0.000000	1678603330.165238	0.000000
0.000000	525.000000	136308.000000	0.000000	1678603330.178519	0.000000
0.000000	525.000000	136298.000000	0.000000	1678603330.191800	0.000000
0.000000	524.000000	136304.000000	0.000000	1678603330.205082	0.000000
0.000000	524.000000	136220.000000	0.000000	1678603330.219663	0.000000
0.000000	522.000000	136024.000000	0.000000	1678603330.234243	0.000000
0.000000	521.000000	135893.000000	0.000000	1678603330.248824	0.000000
0.000000	521.000000	135760.000000	0.000000	1678603330.263405	0.000000
0.000000	522.000000	135767.000000	0.000000	1678603330.277986	0.000000
0.000000	523.000000	135744.000000	0.000000	1678603330.292567	0.000000
0.000000	521.000000	135836.000000	0.000000	1678603330.309694	0.000000
0.000000	523.000000	135876.000000	0.000000	1678603330.326821	0.000000
0.000000	523.000000	136007.000000	0.000000	1678603330.343947	0.000000
0.000000	523.000000	136258.000000	0.000000	1678603330.361074	0.000000
0.000000	522.000000	136334.000000	0.000000	1678603330.378201	0.000000
0.000000	522.000000	136328.000000	0.000000	1678603330.395328	0.000000
0.000000	522.000000	136403.000000	0.000000	1678603330.410568	0.000000
0.000000	523.000000	136376.000000	0.000000	1678603330.425807	0.000000
0.000000	522.000000	136338.000000	0.000000	1678603330.441047	0.000000
0.000000	523.000000	136314.000000	0.000000	1678603330.456287	0.000000
0.000000	522.000000	136371.000000	0.000000	1678603330.471527	0.000000
0.000000	521.000000	136313.000000	0.000000	1678603330.486767	0.000000
0.000000	522.000000	136403.000000	0.000000	1678603330.504405	0.000000
0.000000	522.000000	136328.000000	0.000000	1678603330.522044	0.000000
0.000000	521.000000	136407.000000	0.000000	1678603330.539683	0.000000
0.000000	520.000000	136308.000000	0.000000	1678603330.557322	0.000000
0.000000	520.000000	136360.000000	0.000000	1678603330.574960	0.000000
0.000000	521.000000	136386.000000	0.000000	1678603330.592599	0.000000
0.000000	520.000000	136469.000000	0.000000	1678603330.605578	0.000000
0.000000	519.000000	136475.000000	0.000000	1678603330.618557	0.000000
0.000000	521.000000	136550.000000	0.000000	1678603330.631537	0.000000
0.000000	519.000000	136609.000000	0.000000	1678603330.644516	0.000000
0.000000	520.000000	136619.000000	0.000000	1678603330.657495	0.000000
0.000000	520.000000	136573.000000	0.000000	1678603330.670474	0.000000
0.000000	519.000000	136563.000000	0.000000	1678603330.686953	0.000000
0.000000	520.000000	136551.000000	0.000000	1678603330.703431	0.000000
0.000000	519.000000	136522.000000	0.000000	1678603330.719910	0.000000
0.000000	518.000000	136584.000000	0.000000	1678603330.736388	0.000000
0.000000	519.000000	136536.000000	0.000000	1678603330.752867	0.000000
0.000000	518.000000	136521.000000	0.000000	1678603330.769345	0.000000
0.000000	517.000000	136489.000000	0.000000	1678603330.784740	0.000000
0.000000	518.000000	136480.000000	0.000000	1678603330.800135	0.000000
0.000000	519.000000	136466.000000	0.000000	1678603330.815530	0.000000
0.000000	518.000000	136402.000000	0.000000	1678603330.830925	0.000000
0.000000	518.000000	136380.000000	0.000000	1678603330.846321	0.000000
0.000000	519.000000	136323.000000	0.000000	1678603330.861716	0.000000
0.000000	519.000000	136364.000000	0.000000	1678603330.879290	0.000000
0.000000	519.000000	136370.000000	0.000000	1678603330.896864	0.000000
0.000000	520.000000	136355.000000	0.000000	1678603330.914439	0.000000
0.000000	519.000000	136323.000000	0.000000	1678603330.932013	0.000000
0.000000	518.000000	136296.000000	0.000000	1678603330.949588	0.000000
0.000000	519.000000	136284.000000	0.000000	1678603330.967162	0.000000
0.000000	519.000000	136280.000000	0.000000	1678603330.979918	0.000000
0.000000	518.000000	136275.000000	0.000000	1678603330.992674	0.000000
0.000000	516.000000	136270.000000	0.000000	1678603331.005430	0.000000
0.000000	517.000000	136223.000000	0.000000	1678603331.018185	0.000000
0.000000	518.000000	136262.000000	0.000000	1678603331.030941	0.000000
0.000000	519.000000	136304.000000	0.000000	1678603331.043697	0.000000
0.000000	517.000000	136217.000000	0.000000	1678603331.058775	0.000000
0.000000	519.000000	136208.000000	0.000000	1678603331.073854	0.000000
0.000000	519.000000	136168.000000	0.000000	1678603331.088932	0.000000
0.000000	519.000000	136128.000000	0.000000	1678603331.104010	0.000000
0.000000	519.000000	136050.000000	0.000000	1678603331.119088	0.000000
0.000000	518.000000	136057.000000	0.000000	1678603331.134167	0.000000
0.000000	519.000000	136059.000000	0.000000	1678603331.151380	0.000000
0.000000	519.000000	135978.000000	0.000000	1678603331.168593	0.000000
0.000000	518.000000	135993.000000	0.000000	1678603331.185807	0.000000
0.000000	518.000000	136067.000000	0.000000	1678603331.203020	0.000000
0.000000	518.000000	136071.000000	0.000000	1678603331.220233	0.000000
0.000000	518.000000	136102.000000	0.000000	1678603331.237446	0.000000
0.000000	519.000000	136121.000000	0.000000	1678603331.254631	0.000000
0.000000	517.000000	136110.000000	0.000000	1678603331.271815	0.000000
0.000000	518.000000	136092.000000	0.000000	1678603331.288999	0.000000
0.000000	519.000000	136056.000000	0.000000	1678603331.306184	0.000000
0.000000	518.000000	136014.000000	0.000000	1678603331.323368	0.000000
0.000000	518.000000	136012.000000	0.000000	1678603331.340552	0.000000
0.000000	519.000000	136023.000000	0.000000	1678603331.353558	0.000000
0.000000	520.000000	135989.000000	0.000000	1678603331.366563	0.000000
0.000000	521.000000	135989.000000	0.000000	1678603331.379568	0.000000
0.000000	519.000000	135921.000000	0.000000	1678603331.392573	0.000000
0.000000	522.000000	135925.000000	0.000000	1678603331.405578	0.000000
0.000000	520.000000	135924.000000	0.000000	1678603331.418583	0.000000
0.000000	520.000000	135885.000000	0.000000	1678603331.438082	0.000000
0.000000	522.000000	135899.000000	0.000000	1678603331.457581	0.000000
0.000000	521.000000	135896.000000	0.000000	1678603331.477079	0.000000
0.000000	522.000000	135914.000000	0.000000	1678603331.496578	0.000000
0.000000	522.000000	135894.000000	0.000000	1678603331.516076	0.000000
0.000000	522.000000	135828.000000	0.000000	1678603331.535575	0.000000
0.000000	523.000000	135872.000000	0.000000	1678603331.547968	0.000000
0.000000	520.000000	135858.000000	0.000000	1678603331.560361	0.000000
0.000000	522.000000	135850.000000	0.000000	1678603331.572754	0.000000
0.000000	522.000000	135901.000000	0.000000	1678603331.585147	0.000000
0.000000	522.000000	135868.000000	0.000000	1678603331.597540	0.000000
0.000000	522.000000	135919.000000	0.000000	1678603331.609933	0.000000
0.000000	522.000000	135936.000000	0.000000	1678603331.627914	0.000000
0.000000	522.000000	135889.000000	0.000000	1678603331.645895	0.000000
0.000000	521.000000	135946.000000	0.000000	1678603331.663875	0.000000
0.000000	522.000000	135961.000000	0.000000	1678603331.681856	0.000000
0.000000	522.000000	135940.000000	0.000000	1678603331.699837	0.000000
0.000000	522.000000	135914.000000	0.000000	1678603331.717818	0.000000
0.000000	524.000000	135864.000000	0.000000	1678603331.730264	0.000000
0.000000	522.000000	135893.000000	0.000000	1678603331.742710	0.000000
0.000000	521.000000	135841.000000	0.000000	1678603331.755157	0.000000
0.000000	523.000000	135837.000000	0.000000	1678603331.767603	0.000000
0.000000	524.000000	135756.000000	0.000000	1678603331.780049	0.000000
0.000000	523.000000	135757.000000	0.000000	1678603331.792495	0.000000
0.000000	525.000000	135712.000000	0.000000	1678603331.809650	0.000000
0.000000	525.000000	135618.000000	0.000000	1678603331.826805	0.000000
0.000000	525.000000	135533.000000	0.000000	1678603331.843959	0.000000
0.000000	527.000000	135566.000000	0.000000	1678603331.861114	0.000000
0.000000	524.000000	135485.000000	0.000000	1678603331.878268	0.000000
0.000000	524.000000	135477.000000	0.000000	1678603331.895423	0.000000
0.000000	525.000000	135474.000000	0.000000	1678603331.912956	0.000000
0.000000	526.000000	135443.000000	0.000000	1678603331.930489	0.000000
0.000000	526.000000	135400.000000	0.000000	1678603331.948022	0.000000
0.000000	525.000000	135371.000000	0.000000	1678603331.965555	0.000000
0.000000	525.000000	135352.000000	0.000000	1678603331.983088	0.000000
0.000000	525.000000	135345.000000	0.000000	1678603332.000622	0.000000
0.000000	525.000000	135320.000000	0.000000	1678603332.015298	0.000000
0.000000	525.000000	135239.000000	0.000000	1678603332.029975	0.000000
0.000000	525.000000	135310.000000	0.000000	1678603332.044652	0.000000
0.000000	525.000000	135291.000000	0.000000	1678603332.059329	0.000000
